GRAND_ID: 78
DAM_NAME: -121.690853
LONG: -121.690853
LAT: 45.17581
Depth(m);Area(km2);Volume(mcm)
0.0;0.0;0.0
1.0;0.14;0.25
2.0;0.29;0.66
3.0;0.45;1.22
4.0;0.6;1.94
5.0;0.78;2.84
6.0;0.94;3.9
7.0;1.09;5.1
8.0;1.28;6.5
9.0;1.38;8.0
10.0;1.5;9.61
11.0;1.59;11.31
12.0;1.66;13.09
13.0;1.72;14.92
