GRAND_ID: 72
DAM_NAME: -123.199777
LONG: -123.199777
LAT: 45.47449
Depth(m);Area(km2);Volume(mcm)
0.0;0.0;0.0
1.0;0.29;0.46
2.0;0.53;1.17
3.0;0.77;2.11
4.0;1.18;3.47
5.0;1.54;5.19
6.0;1.81;7.17
7.0;2.07;9.42
8.0;2.33;11.92
9.0;2.53;14.63
10.0;2.75;17.56
11.0;2.99;20.72
12.0;3.18;24.08
13.0;3.34;27.59
14.0;3.5;31.26
15.0;3.63;35.07
16.0;3.75;38.99
17.0;3.85;43.02
18.0;3.93;47.12
19.0;4.0;51.3
20.0;4.06;55.53
21.0;4.1;59.8
22.0;4.15;64.13
