GRAND_ID: 98
DAM_NAME: -121.793773
LONG: -121.793773
LAT: 43.760449
Depth(m);Area(km2);Volume(mcm)
0.0;0.0;0.0
1.0;0.89;1.16
2.0;2.1;3.53
3.0;3.78;7.58
4.0;5.97;13.82
5.0;9.08;23.17
6.0;10.53;33.98
7.0;12.01;46.26
8.0;13.6;60.12
9.0;15.04;75.43
10.0;16.11;91.81
11.0;17.09;109.18
12.0;18.04;127.49
