GRAND_ID: 90
DAM_NAME: -123.296875
LONG: -123.296875
LAT: 44.117518
Depth(m);Area(km2);Volume(mcm)
0.0;0.0;0.0
1.0;0.86;1.07
2.0;2.51;3.79
3.0;5.22;9.22
4.0;9.32;18.75
5.0;11.85;30.81
6.0;14.58;45.6
7.0;16.75;62.56
8.0;19.29;82.07
9.0;21.56;103.84
10.0;25.04;129.09
11.0;27.31;156.62
12.0;29.15;185.98
13.0;30.01;216.2
