GRAND_ID: 96
DAM_NAME: -124.147263
LONG: -124.147263
LAT: 43.806102
Depth(m);Area(km2);Volume(mcm)
0.0;0.0;0.0
1.0;0.54;0.77
2.0;0.98;1.99
3.0;1.9;4.12
4.0;2.99;7.36
5.0;4.24;11.83
6.0;5.15;17.22
7.0;6.02;23.48
8.0;6.66;30.38
9.0;7.21;37.83
10.0;7.64;45.71
11.0;8.0;53.95
12.0;8.27;62.46
