GRAND_ID: 99
DAM_NAME: -123.05623
LONG: -123.05623
LAT: 43.714163
Depth(m);Area(km2);Volume(mcm)
0.0;0.0;0.0
1.0;0.07;0.24
2.0;0.25;0.66
3.0;0.51;1.33
4.0;0.96;2.46
5.0;1.4;4.03
6.0;1.99;6.18
7.0;2.36;8.71
8.0;2.63;11.51
9.0;2.7;14.38
10.0;2.78;17.33
11.0;2.82;20.32
12.0;2.86;23.34
13.0;2.87;26.38
14.0;2.89;29.44
