GRAND_ID: 101
DAM_NAME: -121.690207
LONG: -121.690207
LAT: 43.68125
Depth(m);Area(km2);Volume(mcm)
0.0;0.0;0.0
1.0;0.69;1.24
2.0;2.06;3.86
3.0;4.19;8.6
4.0;8.65;17.81
5.0;12.56;30.93
6.0;17.96;49.45
7.0;22.13;72.14
8.0;25.98;98.68
9.0;28.81;128.04
10.0;31.47;160.08
11.0;33.66;194.29
12.0;35.92;230.76
13.0;37.54;268.86
14.0;39.25;308.66
15.0;40.4;349.62
16.0;41.43;391.61
