GRAND_ID: 115
DAM_NAME: -120.619107
LONG: -120.619107
LAT: 42.121418
Depth(m);Area(km2);Volume(mcm)
0.0;0.0;0.0
1.0;0.08;0.27
2.0;0.2;0.66
3.0;0.68;1.52
4.0;1.57;3.28
5.0;2.95;6.41
6.0;4.23;10.83
7.0;6.89;17.9
8.0;8.21;26.3
9.0;10.0;36.48
10.0;11.59;48.26
11.0;13.17;61.61
12.0;14.48;76.27
13.0;15.7;92.15
14.0;16.18;108.52
15.0;16.49;125.2
