GRAND_ID: 112
DAM_NAME: -121.125647
LONG: -121.125647
LAT: 42.200573
Depth(m);Area(km2);Volume(mcm)
0.0;0.0;0.0
1.0;0.62;1.17
2.0;1.41;3.13
3.0;2.18;5.85
4.0;3.82;10.22
5.0;5.57;16.34
6.0;6.99;23.88
7.0;8.01;32.44
8.0;8.96;41.94
9.0;9.61;52.1
10.0;10.35;63.0
11.0;11.16;74.71
12.0;11.97;87.23
13.0;12.64;100.41
14.0;13.44;114.4
15.0;14.02;128.96
16.0;14.49;144.0
17.0;14.8;159.35
18.0;15.03;174.93
19.0;15.19;190.68
