GRAND_ID: 149
DAM_NAME: -121.626157
LONG: -121.626157
LAT: 39.515671
Depth(m);Area(km2);Volume(mcm)
0.0;0.0;0.0
1.0;0.27;0.4
2.0;0.62;1.15
3.0;1.0;2.29
4.0;1.25;3.67
5.0;1.45;5.25
6.0;1.65;7.03
7.0;1.84;9.0
8.0;1.96;11.1
9.0;2.05;13.29
10.0;2.14;15.56
11.0;2.21;17.91
12.0;2.27;20.31
13.0;2.31;22.75
