GRAND_ID: 160
DAM_NAME: -120.141076
LONG: -120.141076
LAT: 39.3785
Depth(m);Area(km2);Volume(mcm)
0.0;0.0;0.0
1.0;0.09;0.23
2.0;0.14;0.5
3.0;0.18;0.83
4.0;0.23;1.2
5.0;0.3;1.64
6.0;0.39;2.17
7.0;0.49;2.8
8.0;0.61;3.55
9.0;0.78;4.46
10.0;0.96;5.56
11.0;1.11;6.82
12.0;1.22;8.18
13.0;1.29;9.61
14.0;1.37;11.12
15.0;1.41;12.67
16.0;1.48;14.29
17.0;1.52;15.95
18.0;1.56;17.65
