GRAND_ID: 189
DAM_NAME: -120.888188
LONG: -120.888188
LAT: 38.304594
Depth(m);Area(km2);Volume(mcm)
0.0;0.0;0.0
1.0;0.07;0.19
2.0;0.11;0.43
3.0;0.18;0.73
4.0;0.22;1.08
5.0;0.29;1.49
6.0;0.35;1.97
7.0;0.44;2.53
8.0;0.5;3.15
9.0;0.62;3.89
10.0;0.68;4.7
11.0;0.76;5.59
12.0;0.82;6.53
13.0;0.89;7.54
14.0;0.94;8.61
15.0;1.01;9.74
