GRAND_ID: 195
DAM_NAME: -122.75335
LONG: -122.75335
LAT: 38.078079
Depth(m);Area(km2);Volume(mcm)
0.0;0.0;0.0
1.0;0.1;0.27
2.0;0.23;0.66
3.0;0.35;1.17
4.0;0.49;1.82
5.0;0.73;2.72
6.0;0.93;3.81
7.0;1.45;5.43
8.0;1.81;7.4
9.0;2.22;9.78
10.0;2.56;12.51
11.0;2.93;15.61
12.0;3.2;18.97
