GRAND_ID: 194
DAM_NAME: -122.782567
LONG: -122.782567
LAT: 38.150588
Depth(m);Area(km2);Volume(mcm)
0.0;0.0;0.0
1.0;0.04;0.15
2.0;0.08;0.35
3.0;0.11;0.57
4.0;0.14;0.83
5.0;0.17;1.11
6.0;0.19;1.41
7.0;0.22;1.74
8.0;0.24;2.09
9.0;0.27;2.48
10.0;0.3;2.89
11.0;0.34;3.35
12.0;0.38;3.84
13.0;0.42;4.38
14.0;0.49;4.98
15.0;0.52;5.61
16.0;0.58;6.3
17.0;0.64;7.05
18.0;0.69;7.85
19.0;0.72;8.69
20.0;0.76;9.56
21.0;0.79;10.46
