GRAND_ID: 227
DAM_NAME: -121.691241
LONG: -121.691241
LAT: 37.065915
Depth(m);Area(km2);Volume(mcm)
0.0;0.0;0.0
1.0;0.03;0.13
2.0;0.06;0.3
3.0;0.1;0.5
4.0;0.14;0.76
5.0;0.17;1.03
6.0;0.27;1.4
7.0;0.33;1.84
8.0;0.4;2.34
9.0;0.45;2.9
10.0;0.53;3.53
11.0;0.58;4.21
12.0;0.66;4.98
13.0;0.72;5.8
14.0;0.84;6.75
15.0;0.89;7.74
