GRAND_ID: 243
DAM_NAME: -111.461458
LONG: -111.461458
LAT: 56.992781
Depth(m);Area(km2);Volume(mcm)
0.0;0.0;0.0
1.0;0.06;0.24
2.0;0.15;0.56
3.0;0.24;0.97
4.0;0.41;1.56
5.0;0.53;2.27
6.0;0.66;3.1
7.0;0.74;4.02
8.0;0.87;5.06
9.0;0.97;6.21
10.0;1.06;7.44
11.0;1.09;8.71
12.0;1.16;10.05
