GRAND_ID: 259
DAM_NAME: -114.093517
LONG: -114.093517
LAT: 51.000333
Depth(m);Area(km2);Volume(mcm)
0.0;0.0;0.0
1.0;0.1;0.22
2.0;0.17;0.51
3.0;0.31;0.94
4.0;0.44;1.49
5.0;0.56;2.18
6.0;0.69;2.98
7.0;0.92;4.02
8.0;1.52;5.66
9.0;2.44;8.21
10.0;3.2;11.54
11.0;3.6;15.25
12.0;3.8;19.17
13.0;3.95;23.24
14.0;4.07;27.43
