GRAND_ID: 262
DAM_NAME: -118.105755
LONG: -118.105755
LAT: 50.713349
Depth(m);Area(km2);Volume(mcm)
0.0;0.0;0.0
1.0;0.14;0.32
2.0;0.22;0.7
3.0;0.36;1.23
4.0;0.53;1.94
5.0;0.77;2.88
6.0;0.87;3.92
7.0;1.01;5.1
8.0;1.1;6.37
9.0;1.2;7.74
10.0;1.24;9.15
11.0;1.35;10.67
12.0;1.41;12.25
13.0;1.51;13.93
14.0;1.54;15.65
