GRAND_ID: 269
DAM_NAME: -114.19101
LONG: -114.19101
LAT: 50.196758
Depth(m);Area(km2);Volume(mcm)
0.0;0.0;0.0
1.0;0.05;0.18
2.0;0.12;0.42
3.0;0.46;1.0
4.0;0.85;1.97
5.0;1.32;3.41
6.0;1.76;5.29
7.0;2.19;7.6
8.0;2.63;10.36
9.0;2.97;13.45
10.0;3.2;16.77
11.0;3.41;20.31
12.0;3.56;23.99
13.0;3.67;27.78
