GRAND_ID: 317
DAM_NAME: -112.48791
LONG: -112.48791
LAT: 47.674729
Depth(m);Area(km2);Volume(mcm)
0.0;0.0;0.0
1.0;0.17;0.43
2.0;0.43;1.12
3.0;0.74;2.12
4.0;1.21;3.59
5.0;1.78;5.63
6.0;2.41;8.31
7.0;3.01;11.58
8.0;3.66;15.51
9.0;4.16;19.93
10.0;4.61;24.8
11.0;5.06;30.12
12.0;5.47;35.85
13.0;5.78;41.89
14.0;5.99;48.14
