GRAND_ID: 320
DAM_NAME: -112.428497
LONG: -112.428497
LAT: 47.549113
Depth(m);Area(km2);Volume(mcm)
0.0;0.0;0.0
1.0;0.17;0.46
2.0;0.36;1.1
3.0;0.53;1.91
4.0;0.71;2.91
5.0;1.38;4.57
6.0;2.26;7.11
7.0;2.96;10.35
8.0;3.67;14.3
9.0;4.28;18.86
10.0;4.8;23.94
11.0;5.19;29.42
12.0;5.53;35.23
