GRAND_ID: 331
DAM_NAME: -112.809163
LONG: -112.809163
LAT: 46.800985
Depth(m);Area(km2);Volume(mcm)
0.0;0.0;0.0
1.0;0.11;0.3
2.0;0.22;0.71
3.0;0.28;1.18
4.0;0.36;1.73
5.0;0.41;2.32
6.0;0.49;3.0
7.0;0.54;3.73
8.0;0.61;4.54
9.0;0.67;5.39
10.0;0.76;6.34
11.0;0.86;7.38
12.0;0.95;8.52
13.0;1.01;9.72
14.0;1.09;11.0
15.0;1.13;12.32
16.0;1.18;13.68
17.0;1.2;15.08
18.0;1.23;16.5
