GRAND_ID: 346
DAM_NAME: -119.171723
LONG: -119.171723
LAT: 45.860356
Depth(m);Area(km2);Volume(mcm)
0.0;0.0;0.0
1.0;0.13;0.24
2.0;0.28;0.63
3.0;0.77;1.51
4.0;1.03;2.65
5.0;1.4;4.16
6.0;1.75;6.02
7.0;2.13;8.26
8.0;2.32;10.68
9.0;2.59;13.38
10.0;2.78;16.28
11.0;3.14;19.52
12.0;3.27;22.91
13.0;3.42;26.43
14.0;3.53;30.08
15.0;3.68;33.87
16.0;3.77;37.75
17.0;3.86;41.72
18.0;3.92;45.74
19.0;3.96;49.81
