GRAND_ID: 356
DAM_NAME: -112.111221
LONG: -112.111221
LAT: 45.237904
Depth(m);Area(km2);Volume(mcm)
0.0;0.0;0.0
1.0;0.07;0.19
2.0;0.16;0.46
3.0;0.33;0.91
4.0;0.44;1.46
5.0;0.57;2.15
6.0;0.69;2.95
7.0;0.87;3.94
8.0;1.11;5.17
9.0;1.54;6.82
10.0;1.88;8.82
11.0;2.22;11.16
12.0;2.46;13.73
13.0;2.73;16.58
14.0;3.0;19.69
15.0;3.26;23.06
16.0;3.4;26.58
17.0;3.49;30.18
