GRAND_ID: 412
DAM_NAME: -105.613712
LONG: -105.613712
LAT: 42.718483
Depth(m);Area(km2);Volume(mcm)
0.0;0.0;0.0
1.0;0.21;0.32
2.0;0.39;0.82
3.0;0.63;1.57
4.0;0.83;2.51
5.0;1.04;3.66
6.0;1.21;4.98
7.0;1.4;6.5
8.0;1.56;8.17
9.0;1.7;9.98
10.0;1.79;11.89
11.0;1.84;13.84
12.0;1.86;15.82
13.0;1.87;17.8
