GRAND_ID: 413
DAM_NAME: -113.484084
LONG: -113.484084
LAT: 42.667609
Depth(m);Area(km2);Volume(mcm)
0.0;0.0;0.0
1.0;0.48;0.63
2.0;1.01;1.79
3.0;1.64;3.57
4.0;2.74;6.46
5.0;4.3;10.9
6.0;6.05;17.1
7.0;7.68;24.92
8.0;11.94;37.01
9.0;20.91;58.06
10.0;31.28;89.49
11.0;35.47;125.1
12.0;37.51;162.76
