GRAND_ID: 431
DAM_NAME: -111.871746
LONG: -111.871746
LAT: 41.623799
Depth(m);Area(km2);Volume(mcm)
0.0;0.0;0.0
1.0;0.1;0.21
2.0;0.3;0.61
3.0;0.52;1.24
4.0;0.71;2.06
5.0;0.91;3.08
6.0;1.05;4.23
7.0;1.13;5.47
8.0;1.23;6.8
9.0;1.31;8.22
10.0;1.41;9.73
11.0;1.47;11.3
12.0;1.52;12.93
13.0;1.57;14.61
14.0;1.6;16.31
15.0;1.63;18.05
16.0;1.65;19.81
