GRAND_ID: 435
DAM_NAME: -115.895135
LONG: -115.895135
LAT: 41.399013
Depth(m);Area(km2);Volume(mcm)
0.0;0.0;0.0
1.0;0.14;0.29
2.0;0.3;0.75
3.0;0.41;1.32
4.0;0.53;2.0
5.0;0.64;2.8
6.0;0.78;3.73
7.0;0.84;4.72
8.0;0.88;5.75
9.0;0.91;6.82
10.0;0.94;7.91
11.0;0.95;9.02
12.0;0.96;10.14
13.0;0.97;11.27
14.0;0.99;12.41
15.0;0.99;13.56
16.0;1.0;14.71
