GRAND_ID: 430
DAM_NAME: -115.83377
LONG: -115.83377
LAT: 41.684728
Depth(m);Area(km2);Volume(mcm)
0.0;0.0;0.0
1.0;0.07;0.24
2.0;0.19;0.6
3.0;0.3;1.08
4.0;0.56;1.81
5.0;0.87;2.85
6.0;1.32;4.34
7.0;1.74;6.26
8.0;2.55;8.98
9.0;3.33;12.48
10.0;4.57;17.23
11.0;5.7;23.1
12.0;6.7;29.98
13.0;7.68;37.83
14.0;8.73;46.73
15.0;9.63;56.53
16.0;10.47;67.18
