GRAND_ID: 449
DAM_NAME: -111.430527
LONG: -111.430527
LAT: 40.963948
Depth(m);Area(km2);Volume(mcm)
0.0;0.0;0.0
1.0;0.03;0.15
2.0;0.08;0.34
3.0;0.11;0.57
4.0;0.16;0.84
5.0;0.2;1.15
6.0;0.24;1.51
7.0;0.27;1.89
8.0;0.43;2.44
9.0;0.59;3.14
10.0;0.96;4.22
11.0;1.3;5.65
12.0;1.71;7.47
13.0;2.26;9.84
14.0;2.83;12.79
15.0;3.29;16.2
16.0;3.63;19.95
17.0;3.95;24.01
18.0;4.33;28.46
19.0;4.62;33.2
20.0;4.87;38.18
21.0;5.02;43.32
22.0;5.08;48.52
