GRAND_ID: 446
DAM_NAME: -116.363626
LONG: -116.363626
LAT: 41.008612
Depth(m);Area(km2);Volume(mcm)
0.0;0.0;0.0
1.0;0.15;0.35
2.0;0.39;0.94
3.0;0.53;1.67
4.0;0.72;2.6
5.0;0.92;3.71
6.0;1.22;5.13
7.0;1.45;6.78
8.0;1.57;8.55
9.0;1.65;10.4
10.0;1.72;12.32
11.0;1.78;14.31
12.0;1.82;16.33
13.0;1.87;18.4
14.0;1.91;20.51
