GRAND_ID: 447
DAM_NAME: -116.341095
LONG: -116.341095
LAT: 40.987786
Depth(m);Area(km2);Volume(mcm)
0.0;0.0;0.0
1.0;0.05;0.18
2.0;0.1;0.42
3.0;0.15;0.71
4.0;0.22;1.07
5.0;0.28;1.49
6.0;0.32;1.94
7.0;0.35;2.44
8.0;0.39;2.96
9.0;0.41;3.51
10.0;0.43;4.08
11.0;0.44;4.66
12.0;0.46;5.26
13.0;0.47;5.86
14.0;0.48;6.48
15.0;0.49;7.11
16.0;0.5;7.75
17.0;0.5;8.39
18.0;0.51;9.03
19.0;0.51;9.68
