GRAND_ID: 454
DAM_NAME: -105.019943
LONG: -105.019943
LAT: 40.849616
Depth(m);Area(km2);Volume(mcm)
0.0;0.0;0.0
1.0;0.04;0.17
2.0;0.06;0.37
3.0;0.09;0.6
4.0;0.11;0.84
5.0;0.14;1.12
6.0;0.16;1.41
7.0;0.18;1.72
8.0;0.2;2.06
9.0;0.23;2.42
10.0;0.3;2.86
11.0;0.57;3.56
12.0;0.84;4.53
13.0;1.09;5.75
14.0;1.27;7.16
15.0;1.41;8.7
16.0;1.51;10.34
17.0;1.62;12.1
18.0;1.73;13.97
19.0;1.81;15.91
20.0;1.86;17.9
21.0;1.9;19.94
