GRAND_ID: 461
DAM_NAME: -115.783548
LONG: -115.783548
LAT: 40.68374
Depth(m);Area(km2);Volume(mcm)
0.0;0.0;0.0
1.0;0.08;0.19
2.0;0.16;0.44
3.0;0.29;0.83
4.0;0.51;1.44
5.0;0.82;2.36
6.0;1.0;3.46
7.0;1.22;4.79
8.0;1.55;6.44
9.0;2.05;8.59
10.0;2.8;11.49
11.0;3.73;15.32
12.0;4.87;20.29
13.0;5.77;26.16
14.0;6.16;32.42
