GRAND_ID: 482
DAM_NAME: -110.227662
LONG: -110.227662
LAT: 40.295551
Depth(m);Area(km2);Volume(mcm)
0.0;0.0;0.0
1.0;0.05;0.17
2.0;0.12;0.41
3.0;0.2;0.73
4.0;0.32;1.18
5.0;0.47;1.78
6.0;0.68;2.58
7.0;0.91;3.61
8.0;1.06;4.79
9.0;1.16;6.08
10.0;1.25;7.46
11.0;1.33;8.91
12.0;1.4;10.43
13.0;1.44;12.0
14.0;1.49;13.61
15.0;1.55;15.28
16.0;1.58;16.99
17.0;1.63;18.75
18.0;1.67;20.54
19.0;1.7;22.36
20.0;1.71;24.2
21.0;1.72;26.05
