GRAND_ID: 490
DAM_NAME: -105.046128
LONG: -105.046128
LAT: 40.174675
Depth(m);Area(km2);Volume(mcm)
0.0;0.0;0.0
1.0;0.05;0.2
2.0;0.11;0.46
3.0;0.16;0.77
4.0;0.23;1.15
5.0;0.34;1.63
6.0;0.73;2.51
7.0;1.09;3.74
8.0;1.43;5.32
9.0;2.02;7.48
10.0;2.26;9.89
11.0;2.39;12.42
12.0;2.5;15.07
13.0;2.59;17.8
14.0;2.75;20.7
15.0;2.86;23.71
16.0;2.92;26.77
