GRAND_ID: 501
DAM_NAME: -105.210434
LONG: -105.210434
LAT: 39.947899
Depth(m);Area(km2);Volume(mcm)
0.0;0.0;0.0
1.0;0.11;0.23
2.0;0.23;0.57
3.0;0.37;1.06
4.0;0.55;1.72
5.0;0.67;2.51
6.0;0.77;3.39
7.0;0.84;4.35
8.0;0.9;5.36
9.0;0.95;6.43
10.0;1.0;7.54
11.0;1.03;8.69
12.0;1.08;9.89
