GRAND_ID: 523
DAM_NAME: -111.707708
LONG: -111.707708
LAT: 39.207266
Depth(m);Area(km2);Volume(mcm)
0.0;0.0;0.0
1.0;0.13;0.26
2.0;0.36;0.76
3.0;0.66;1.55
4.0;1.08;2.77
5.0;1.65;4.55
6.0;2.22;6.9
7.0;2.87;9.9
8.0;3.5;13.54
9.0;3.88;17.55
10.0;4.31;21.99
11.0;4.59;26.71
12.0;4.85;31.69
13.0;5.07;36.89
14.0;5.23;42.26
