GRAND_ID: 527
DAM_NAME: -118.861185
LONG: -118.861185
LAT: 39.044175
Depth(m);Area(km2);Volume(mcm)
0.0;0.0;0.0
1.0;0.33;0.55
2.0;0.7;1.47
3.0;1.12;2.8
4.0;1.7;4.71
5.0;2.06;6.99
6.0;2.25;9.45
7.0;2.36;12.03
8.0;2.42;14.66
9.0;2.45;17.33
10.0;2.47;20.01
11.0;2.49;22.72
12.0;2.5;25.43
13.0;2.51;28.16
