GRAND_ID: 546
DAM_NAME: -119.212814
LONG: -119.212814
LAT: 38.325225
Depth(m);Area(km2);Volume(mcm)
0.0;0.0;0.0
1.0;0.27;0.39
2.0;0.75;1.26
3.0;1.45;2.82
4.0;2.33;5.26
5.0;3.15;8.53
6.0;3.86;12.5
7.0;4.59;17.2
8.0;5.12;22.44
9.0;5.83;28.39
10.0;6.48;34.98
11.0;7.46;42.55
12.0;8.64;51.3
13.0;9.65;61.06
14.0;9.95;71.13
15.0;10.24;81.49
16.0;10.37;91.97
