GRAND_ID: 550
DAM_NAME: -112.833768
LONG: -112.833768
LAT: 38.21623
Depth(m);Area(km2);Volume(mcm)
0.0;0.0;0.0
1.0;0.09;0.19
2.0;0.33;0.63
3.0;0.68;1.42
4.0;1.29;2.82
5.0;1.81;4.73
6.0;2.21;7.05
7.0;2.52;9.67
8.0;2.87;12.65
9.0;3.06;15.82
10.0;3.23;19.15
11.0;3.35;22.61
12.0;3.42;26.14
13.0;3.46;29.7
14.0;3.49;33.3
