GRAND_ID: 569
DAM_NAME: -113.86166
LONG: -113.86166
LAT: 37.517876
Depth(m);Area(km2);Volume(mcm)
0.0;0.0;0.0
1.0;0.07;0.2
2.0;0.16;0.49
3.0;0.23;0.85
4.0;0.31;1.29
5.0;0.4;1.82
6.0;0.6;2.55
7.0;0.75;3.44
8.0;0.92;4.49
9.0;1.0;5.62
10.0;1.07;6.82
11.0;1.1;8.05
12.0;1.12;9.3
