GRAND_ID: 607
DAM_NAME: -117.948226
LONG: -117.948226
LAT: 36.139904
Depth(m);Area(km2);Volume(mcm)
0.0;0.0;0.0
1.0;0.22;0.32
2.0;0.5;0.93
3.0;0.8;1.84
4.0;1.11;3.05
5.0;1.33;4.49
6.0;1.57;6.16
7.0;1.75;8.01
8.0;1.99;10.1
9.0;2.32;12.52
10.0;2.61;15.23
11.0;2.81;18.14
12.0;3.02;21.27
13.0;3.16;24.53
14.0;3.27;27.91
15.0;3.33;31.34
16.0;3.37;34.82
