GRAND_ID: 614
DAM_NAME: -106.548993
LONG: -106.548993
LAT: 35.394321
Depth(m);Area(km2);Volume(mcm)
0.0;0.0;0.0
1.0;0.08;0.2
2.0;0.17;0.49
3.0;0.34;0.95
4.0;0.46;1.53
5.0;0.67;2.32
6.0;1.03;3.47
7.0;1.5;5.09
8.0;1.87;7.09
9.0;2.19;9.4
10.0;2.5;12.01
11.0;2.98;15.12
12.0;3.52;18.76
13.0;4.17;23.05
14.0;4.52;27.69
15.0;4.72;32.53
16.0;4.83;37.48
17.0;4.91;42.51
18.0;4.94;47.57
19.0;4.97;52.66
20.0;4.98;57.77
