GRAND_ID: 627
DAM_NAME: -109.380173
LONG: -109.380173
LAT: 34.368424
Depth(m);Area(km2);Volume(mcm)
0.0;0.0;0.0
1.0;0.17;0.38
2.0;0.41;1.0
3.0;0.93;2.14
4.0;1.33;3.68
5.0;1.73;5.62
6.0;2.03;7.86
7.0;2.34;10.41
8.0;2.59;13.21
9.0;2.8;16.22
10.0;2.95;19.39
11.0;3.1;22.7
12.0;3.21;26.11
13.0;3.28;29.6
14.0;3.32;33.12
