GRAND_ID: 663
DAM_NAME: -114.481181
LONG: -114.481181
LAT: 32.90664
Depth(m);Area(km2);Volume(mcm)
0.0;0.0;0.0
1.0;0.14;0.32
2.0;0.27;0.78
3.0;0.38;1.33
4.0;0.48;2.0
5.0;0.57;2.75
6.0;0.65;3.57
7.0;0.71;4.46
8.0;0.78;5.42
9.0;0.83;6.44
10.0;0.89;7.51
11.0;0.94;8.64
12.0;0.98;9.8
