GRAND_ID: 677
DAM_NAME: -110.725411
LONG: -110.725411
LAT: 29.211801
Depth(m);Area(km2);Volume(mcm)
0.0;0.0;0.0
1.0;0.36;0.49
2.0;0.52;1.15
3.0;0.98;2.26
4.0;1.43;3.82
5.0;2.09;6.05
6.0;2.47;8.65
7.0;3.06;11.84
8.0;3.39;15.36
9.0;3.96;19.46
10.0;4.3;23.89
11.0;5.13;29.16
12.0;5.67;34.96
13.0;6.76;41.85
14.0;7.36;49.35
15.0;8.62;58.1
16.0;9.61;67.85
17.0;11.67;79.65
18.0;13.23;93.02
19.0;16.39;109.55
20.0;18.6;128.28
