GRAND_ID: 683
DAM_NAME: -110.396474
LONG: -110.396474
LAT: 28.427011
Depth(m);Area(km2);Volume(mcm)
0.0;0.0;0.0
1.0;0.08;0.18
2.0;0.2;0.49
3.0;0.27;0.87
4.0;0.37;1.35
5.0;0.47;1.93
6.0;0.63;2.67
7.0;0.8;3.58
8.0;1.16;4.84
9.0;1.49;6.44
10.0;1.91;8.45
11.0;2.2;10.76
12.0;2.5;13.37
13.0;2.65;16.12
