GRAND_ID: 682
DAM_NAME: -106.169415
LONG: -106.169415
LAT: 28.56934
Depth(m);Area(km2);Volume(mcm)
0.0;0.0;0.0
1.0;0.07;0.19
2.0;0.19;0.5
3.0;0.3;0.92
4.0;0.45;1.5
5.0;0.67;2.29
6.0;0.9;3.31
7.0;1.08;4.51
8.0;1.24;5.88
9.0;1.41;7.41
10.0;1.56;9.09
11.0;1.69;10.9
12.0;1.8;12.83
13.0;1.89;14.84
14.0;1.96;16.92
