GRAND_ID: 697
DAM_NAME: -107.05847
LONG: -107.05847
LAT: 24.753535
Depth(m);Area(km2);Volume(mcm)
0.0;0.0;0.0
1.0;0.06;0.17
2.0;0.1;0.38
3.0;0.19;0.68
4.0;0.26;1.05
5.0;0.36;1.52
6.0;0.41;2.04
7.0;0.52;2.67
8.0;0.61;3.4
9.0;0.76;4.27
10.0;0.87;5.25
11.0;1.05;6.41
12.0;1.17;7.7
13.0;1.4;9.2
14.0;1.56;10.87
15.0;1.75;12.73
16.0;1.87;14.71
17.0;1.98;16.81
18.0;2.03;18.95
19.0;2.09;21.16
