GRAND_ID: 717
DAM_NAME: -95.989539
LONG: -95.989539
LAT: 50.397348
Depth(m);Area(km2);Volume(mcm)
0.0;0.0;0.0
1.0;1.66;1.79
2.0;6.57;8.48
3.0;26.17;34.77
4.0;46.84;81.73
5.0;65.82;147.68
6.0;76.54;224.33
7.0;90.4;314.86
8.0;100.73;415.72
9.0;114.23;530.07
10.0;121.72;651.91
11.0;134.23;786.26
12.0;139.97;926.35
13.0;146.42;1072.89
14.0;149.73;1222.75
15.0;153.86;1376.72
16.0;155.05;1531.9
