GRAND_ID: 739
DAM_NAME: -91.730353
LONG: -91.730353
LAT: 48.000648
Depth(m);Area(km2);Volume(mcm)
0.0;0.0;0.0
1.0;1.15;1.58
2.0;1.86;3.87
3.0;4.04;8.33
4.0;6.06;14.82
5.0;8.59;23.84
6.0;9.36;33.64
7.0;10.28;44.35
8.0;10.67;55.45
9.0;11.18;67.05
10.0;11.35;78.84
11.0;11.53;90.79
12.0;11.59;102.82
