GRAND_ID: 744
DAM_NAME: -91.784897
LONG: -91.784897
LAT: 47.813354
Depth(m);Area(km2);Volume(mcm)
0.0;0.0;0.0
1.0;4.88;5.43
2.0;7.31;13.29
3.0;12.17;26.01
4.0;16.26;42.82
5.0;22.71;66.08
6.0;25.74;92.37
7.0;29.81;122.73
8.0;31.6;154.88
9.0;33.69;189.12
10.0;34.44;224.11
11.0;35.35;260.01
12.0;35.63;296.19
