GRAND_ID: 763
DAM_NAME: -92.189105
LONG: -92.189105
LAT: 47.282541
Depth(m);Area(km2);Volume(mcm)
0.0;0.0;0.0
1.0;0.26;0.54
2.0;0.7;1.52
3.0;1.13;2.92
4.0;3.01;6.2
5.0;4.83;11.3
6.0;6.73;18.3
7.0;8.62;27.2
8.0;11.7;39.17
9.0;13.91;53.36
10.0;16.43;70.07
11.0;17.68;88.02
12.0;18.91;107.2
13.0;19.31;126.79
14.0;19.67;146.74
