GRAND_ID: 836
DAM_NAME: -96.639471
LONG: -96.639471
LAT: 45.767747
Depth(m);Area(km2);Volume(mcm)
0.0;0.0;0.0
1.0;8.38;9.41
2.0;16.48;26.93
3.0;26.35;54.32
4.0;30.7;86.05
5.0;36.28;123.36
6.0;38.77;163.17
7.0;42.51;206.71
8.0;44.31;252.06
9.0;47.03;300.13
10.0;48.11;349.27
11.0;49.34;399.65
12.0;49.82;450.5
13.0;50.42;501.96
14.0;50.72;553.72
15.0;51.07;605.82
