GRAND_ID: 846
DAM_NAME: -91.046074
LONG: -91.046074
LAT: 45.492105
Depth(m);Area(km2);Volume(mcm)
0.0;0.0;0.0
1.0;0.18;0.59
2.0;0.45;1.46
3.0;0.57;2.43
4.0;0.76;3.6
5.0;0.87;4.89
6.0;1.08;6.38
7.0;1.25;8.03
8.0;1.73;10.17
9.0;2.06;12.64
10.0;2.71;15.76
11.0;3.17;19.34
12.0;3.93;23.68
13.0;4.6;28.69
14.0;5.6;34.7
15.0;6.34;41.45
16.0;7.81;49.68
17.0;8.1;58.19
