GRAND_ID: 867
DAM_NAME: -91.44241
LONG: -91.44241
LAT: 44.817096
Depth(m);Area(km2);Volume(mcm)
0.0;0.0;0.0
1.0;0.55;1.12
2.0;1.28;2.96
3.0;1.7;5.23
4.0;2.19;7.99
5.0;2.41;10.97
6.0;2.64;14.17
7.0;2.71;17.44
8.0;2.76;20.77
9.0;2.8;24.14
10.0;2.84;27.54
11.0;2.87;30.98
12.0;2.92;34.47
13.0;2.95;37.99
14.0;3.0;41.55
