GRAND_ID: 863
DAM_NAME: -91.339338
LONG: -91.339338
LAT: 44.938059
Depth(m);Area(km2);Volume(mcm)
0.0;0.0;0.0
1.0;0.17;0.32
2.0;0.33;0.81
3.0;0.64;1.6
4.0;0.9;2.65
5.0;1.82;4.62
6.0;2.41;7.19
7.0;3.26;10.61
8.0;3.78;14.54
9.0;5.22;19.91
10.0;6.66;26.73
11.0;10.13;37.02
12.0;12.41;49.58
13.0;15.45;65.18
14.0;16.92;82.25
15.0;19.11;101.52
16.0;20.34;122.01
17.0;21.81;143.97
18.0;22.38;166.51
