GRAND_ID: 892
DAM_NAME: -90.094792
LONG: -90.094792
LAT: 43.589786
Depth(m);Area(km2);Volume(mcm)
0.0;0.0;0.0
1.0;0.31;1.02
2.0;0.7;2.44
3.0;0.92;4.07
4.0;1.22;6.01
5.0;1.36;8.08
6.0;1.5;10.3
7.0;1.59;12.6
8.0;1.69;15.01
9.0;1.73;17.46
10.0;1.8;19.97
11.0;1.83;22.52
12.0;1.87;25.11
13.0;1.89;27.71
