GRAND_ID: 907
DAM_NAME: -91.531121
LONG: -91.531121
LAT: 41.727526
Depth(m);Area(km2);Volume(mcm)
0.0;0.0;0.0
1.0;0.15;0.29
2.0;0.37;0.81
3.0;1.11;2.06
4.0;1.82;4.03
5.0;2.63;6.81
6.0;4.52;11.47
7.0;7.55;19.17
8.0;10.38;29.7
9.0;13.26;43.1
10.0;14.98;58.22
11.0;16.94;75.3
12.0;18.03;93.48
13.0;19.07;112.69
14.0;19.65;132.48
15.0;20.19;152.81
