GRAND_ID: 901
DAM_NAME: -104.766214
LONG: -104.766214
LAT: 42.289933
Depth(m);Area(km2);Volume(mcm)
0.0;0.0;0.0
1.0;0.17;0.34
2.0;0.47;0.98
3.0;0.81;1.96
4.0;1.77;3.89
5.0;3.1;7.16
6.0;4.37;11.7
7.0;5.29;17.16
8.0;6.18;23.51
9.0;6.89;30.57
10.0;7.44;38.17
11.0;7.83;46.17
12.0;8.04;54.37
13.0;8.2;62.74
14.0;8.35;71.26
15.0;8.45;79.88
16.0;8.53;88.58
17.0;8.6;97.35
