GRAND_ID: 908
DAM_NAME: -104.193569
LONG: -104.193569
LAT: 41.714582
Depth(m);Area(km2);Volume(mcm)
0.0;0.0;0.0
1.0;0.21;0.59
2.0;0.56;1.54
3.0;1.43;3.36
4.0;2.0;5.75
5.0;2.46;8.59
6.0;2.95;11.93
7.0;3.41;15.73
8.0;3.75;19.87
9.0;3.92;24.17
10.0;4.03;28.59
11.0;4.1;33.08
12.0;4.14;37.6
