GRAND_ID: 946
DAM_NAME: -92.65625
LONG: -92.65625
LAT: 40.171947
Depth(m);Area(km2);Volume(mcm)
0.0;0.0;0.0
1.0;0.09;0.25
2.0;0.21;0.63
3.0;0.3;1.09
4.0;0.53;1.78
5.0;0.71;2.65
6.0;0.97;3.79
7.0;1.12;5.07
8.0;1.41;6.64
9.0;1.61;8.41
10.0;1.82;10.4
11.0;1.96;12.52
12.0;2.13;14.81
13.0;2.22;17.19
14.0;2.33;19.68
