GRAND_ID: 958
DAM_NAME: -102.174556
LONG: -102.174556
LAT: 39.621971
Depth(m);Area(km2);Volume(mcm)
0.0;0.0;0.0
1.0;0.37;0.72
2.0;0.71;1.77
3.0;1.03;3.14
4.0;1.51;5.0
5.0;2.09;7.43
6.0;2.69;10.47
7.0;4.75;15.57
8.0;6.43;22.35
9.0;6.96;29.66
10.0;7.25;37.25
11.0;7.44;45.04
12.0;7.52;52.9
