GRAND_ID: 962
DAM_NAME: -98.318864
LONG: -98.318864
LAT: 39.473081
Depth(m);Area(km2);Volume(mcm)
0.0;0.0;0.0
1.0;2.34;4.13
2.0;3.43;9.35
3.0;5.41;16.54
4.0;6.64;24.97
5.0;9.54;36.29
6.0;13.69;51.77
7.0;22.85;76.4
8.0;31.4;109.59
9.0;37.26;148.63
10.0;39.03;189.45
11.0;40.84;232.08
12.0;41.3;275.16
