GRAND_ID: 960
DAM_NAME: -92.643929
LONG: -92.643929
LAT: 39.552797
Depth(m);Area(km2);Volume(mcm)
0.0;0.0;0.0
1.0;0.61;0.71
2.0;1.21;2.02
3.0;2.09;4.22
4.0;3.3;7.63
5.0;6.82;14.55
6.0;9.98;24.64
7.0;12.8;37.54
8.0;14.31;51.96
9.0;15.97;68.04
10.0;17.33;85.48
11.0;18.99;104.57
12.0;19.85;124.52
13.0;20.48;145.11
