GRAND_ID: 1007
DAM_NAME: -96.06875
LONG: -96.06875
LAT: 37.649318
Depth(m);Area(km2);Volume(mcm)
0.0;0.0;0.0
1.0;0.08;0.2
2.0;0.54;0.86
3.0;1.51;2.49
4.0;2.69;5.29
5.0;3.38;8.79
6.0;5.21;14.12
7.0;6.84;21.07
8.0;8.64;29.83
9.0;9.4;39.35
10.0;10.34;49.81
11.0;10.67;60.6
12.0;10.99;71.71
