GRAND_ID: 1010
DAM_NAME: -91.14375
LONG: -91.14375
LAT: 37.372917
Depth(m);Area(km2);Volume(mcm)
0.0;0.0;0.0
1.0;0.09;0.21
2.0;0.15;0.48
3.0;0.27;0.87
4.0;0.35;1.33
5.0;0.47;1.92
6.0;0.54;2.58
7.0;0.67;3.37
8.0;0.75;4.24
9.0;0.9;5.26
10.0;1.0;6.37
11.0;1.22;7.71
12.0;1.36;9.2
13.0;1.58;10.9
