GRAND_ID: 1022
DAM_NAME: -97.025408
LONG: -97.025408
LAT: 36.720594
Depth(m);Area(km2);Volume(mcm)
0.0;0.0;0.0
1.0;0.28;0.44
2.0;0.47;1.07
3.0;0.79;2.02
4.0;0.96;3.14
5.0;1.24;4.54
6.0;1.42;6.11
7.0;1.73;8.0
8.0;1.95;10.1
9.0;2.39;12.65
10.0;2.63;15.44
11.0;2.96;18.56
12.0;3.1;21.82
