GRAND_ID: 1030
DAM_NAME: -94.31875
LONG: -94.31875
LAT: 36.469741
Depth(m);Area(km2);Volume(mcm)
0.0;0.0;0.0
1.0;0.03;0.16
2.0;0.05;0.33
3.0;0.08;0.53
4.0;0.1;0.75
5.0;0.14;1.02
6.0;0.18;1.33
7.0;0.24;1.7
8.0;0.28;2.1
9.0;0.34;2.57
10.0;0.43;3.12
11.0;0.51;3.76
12.0;0.58;4.47
13.0;0.77;5.36
14.0;0.86;6.35
15.0;1.06;7.53
16.0;1.24;8.9
17.0;1.47;10.49
18.0;1.57;12.19
19.0;1.7;14.01
20.0;1.75;15.88
21.0;1.81;17.82
