GRAND_ID: 1039
DAM_NAME: -95.164321
LONG: -95.164321
LAT: 36.295189
Depth(m);Area(km2);Volume(mcm)
0.0;0.0;0.0
1.0;0.57;0.7
2.0;2.0;2.83
3.0;6.2;9.16
4.0;11.2;20.49
5.0;16.4;37.01
6.0;19.41;56.55
7.0;22.38;79.06
8.0;24.41;103.6
9.0;26.1;129.82
10.0;27.02;156.97
11.0;27.86;184.96
12.0;28.39;213.48
13.0;28.96;242.56
14.0;29.28;271.97
15.0;29.55;301.64
