GRAND_ID: 1031
DAM_NAME: -96.994321
LONG: -96.994321
LAT: 36.455897
Depth(m);Area(km2);Volume(mcm)
0.0;0.0;0.0
1.0;0.29;0.79
2.0;0.88;2.17
3.0;1.3;3.98
4.0;1.82;6.3
5.0;2.08;8.88
6.0;2.55;11.93
7.0;2.83;15.26
8.0;3.41;19.18
9.0;3.89;23.57
10.0;6.05;30.12
11.0;8.12;38.75
12.0;12.94;52.18
13.0;15.95;68.63
14.0;20.38;89.51
15.0;21.78;111.8
