GRAND_ID: 1041
DAM_NAME: -95.104519
LONG: -95.104519
LAT: 36.256308
Depth(m);Area(km2);Volume(mcm)
0.0;0.0;0.0
1.0;0.05;0.21
2.0;0.14;0.5
3.0;0.28;0.94
4.0;0.57;1.66
5.0;0.84;2.66
6.0;1.23;4.04
7.0;1.44;5.63
8.0;1.72;7.5
9.0;1.92;9.58
10.0;2.12;11.85
11.0;2.26;14.27
12.0;2.42;16.84
13.0;2.51;19.51
14.0;2.6;22.26
