GRAND_ID: 1045
DAM_NAME: -91.742174
LONG: -91.742174
LAT: 36.195275
Depth(m);Area(km2);Volume(mcm)
0.0;0.0;0.0
1.0;0.08;0.25
2.0;0.17;0.59
3.0;0.24;1.0
4.0;0.37;1.53
5.0;0.47;2.17
6.0;0.59;2.93
7.0;0.69;3.79
8.0;0.88;4.84
9.0;1.09;6.1
10.0;1.33;7.6
11.0;1.53;9.3
12.0;1.74;11.21
13.0;1.87;13.25
14.0;2.03;15.44
15.0;2.14;17.76
16.0;2.29;20.21
17.0;2.37;22.75
18.0;2.47;25.38
