GRAND_ID: 1059
DAM_NAME: -95.1825
LONG: -95.1825
LAT: 35.606383
Depth(m);Area(km2);Volume(mcm)
0.0;0.0;0.0
1.0;0.46;0.72
2.0;0.79;1.78
3.0;0.98;3.03
4.0;1.11;4.41
5.0;1.56;6.25
6.0;2.04;8.56
7.0;2.69;11.51
8.0;3.05;14.83
9.0;3.49;18.59
10.0;3.76;22.62
11.0;4.0;26.89
12.0;4.12;31.28
