GRAND_ID: 1086
DAM_NAME: -104.688235
LONG: -104.688235
LAT: 35.02896
Depth(m);Area(km2);Volume(mcm)
0.0;0.0;0.0
1.0;0.32;0.51
2.0;0.61;1.31
3.0;0.91;2.41
4.0;1.27;3.87
5.0;1.93;6.0
6.0;2.4;8.59
7.0;3.95;12.72
8.0;7.4;20.31
9.0;9.83;30.33
10.0;11.71;42.23
11.0;13.36;55.78
12.0;14.15;70.13
13.0;14.52;84.84
