GRAND_ID: 1098
DAM_NAME: -92.847966
LONG: -92.847966
LAT: 34.797964
Depth(m);Area(km2);Volume(mcm)
0.0;0.0;0.0
1.0;0.12;0.3
2.0;0.29;0.77
3.0;0.41;1.35
4.0;0.69;2.21
5.0;1.03;3.42
6.0;1.4;4.99
7.0;1.61;6.78
8.0;1.88;8.83
9.0;2.05;11.06
10.0;2.27;13.5
11.0;2.43;16.11
12.0;2.86;19.14
13.0;3.15;22.47
14.0;3.47;26.11
15.0;3.69;29.98
16.0;3.93;34.09
17.0;4.09;38.36
18.0;4.3;42.83
19.0;4.41;47.41
20.0;4.55;52.13
