GRAND_ID: 1101
DAM_NAME: -90.122793
LONG: -90.122793
LAT: 34.756146
Depth(m);Area(km2);Volume(mcm)
0.0;0.0;0.0
1.0;1.53;2.07
2.0;5.25;7.86
3.0;11.17;19.58
4.0;18.75;38.86
5.0;29.55;68.96
6.0;35.99;105.49
7.0;41.03;147.07
8.0;44.16;191.77
9.0;46.85;239.16
10.0;48.8;288.49
11.0;50.43;339.47
12.0;51.5;391.51
13.0;52.39;444.44
14.0;52.9;497.88
