GRAND_ID: 1124
DAM_NAME: -94.09561
LONG: -94.09561
LAT: 34.145695
Depth(m);Area(km2);Volume(mcm)
0.0;0.0;0.0
1.0;0.12;0.28
2.0;0.22;0.67
3.0;0.33;1.16
4.0;0.4;1.73
5.0;0.52;2.41
6.0;0.62;3.2
7.0;0.96;4.32
8.0;1.56;6.04
9.0;2.68;8.88
10.0;3.31;12.35
11.0;4.1;16.61
12.0;4.59;21.37
13.0;5.16;26.69
14.0;5.57;32.43
15.0;5.97;38.56
16.0;6.21;44.94
17.0;6.47;51.57
18.0;6.61;58.34
