GRAND_ID: 1122
DAM_NAME: -94.228715
LONG: -94.228715
LAT: 34.211828
Depth(m);Area(km2);Volume(mcm)
0.0;0.0;0.0
1.0;0.06;0.2
2.0;0.14;0.47
3.0;0.56;1.17
4.0;1.08;2.38
5.0;1.69;4.2
6.0;2.05;6.39
7.0;2.67;9.19
8.0;3.25;12.58
9.0;3.93;16.64
10.0;4.38;21.15
11.0;4.85;26.13
12.0;5.17;31.43
13.0;5.52;37.08
14.0;5.75;42.97
15.0;6.01;49.12
16.0;6.15;55.4
17.0;6.3;61.83
18.0;6.39;68.35
