GRAND_ID: 1134
DAM_NAME: -95.557174
LONG: -95.557174
LAT: 33.85427
Depth(m);Area(km2);Volume(mcm)
0.0;0.0;0.0
1.0;0.25;0.38
2.0;0.49;0.99
3.0;0.87;1.99
4.0;1.11;3.23
5.0;1.53;4.89
6.0;2.07;7.08
7.0;3.04;10.25
8.0;4.08;14.45
9.0;6.35;20.93
10.0;9.3;30.35
11.0;13.71;44.19
12.0;16.72;61.03
13.0;19.78;80.94
14.0;21.66;102.73
15.0;23.75;126.61
16.0;24.86;151.6
17.0;25.83;177.56
