GRAND_ID: 1138
DAM_NAME: -97.216223
LONG: -97.216223
LAT: 33.772917
Depth(m);Area(km2);Volume(mcm)
0.0;0.0;0.0
1.0;0.18;0.37
2.0;0.3;0.87
3.0;0.52;1.58
4.0;0.86;2.63
5.0;1.32;4.15
6.0;1.66;6.0
7.0;2.24;8.43
8.0;2.82;11.45
9.0;3.29;14.93
10.0;3.57;18.7
11.0;3.86;22.75
12.0;4.02;26.96
13.0;4.18;31.34
14.0;4.26;35.79
15.0;4.34;40.32
16.0;4.38;44.89
