GRAND_ID: 1139
DAM_NAME: -98.360383
LONG: -98.360383
LAT: 33.762939
Depth(m);Area(km2);Volume(mcm)
0.0;0.0;0.0
1.0;0.97;1.2
2.0;2.07;3.49
3.0;3.8;7.52
4.0;5.74;13.48
5.0;11.22;24.93
6.0;15.45;40.6
7.0;23.18;64.0
8.0;29.34;93.57
9.0;38.28;132.07
10.0;42.45;174.75
11.0;48.28;223.25
12.0;51.47;274.95
13.0;55.23;330.4
