GRAND_ID: 1153
DAM_NAME: -94.161536
LONG: -94.161536
LAT: 33.306363
Depth(m);Area(km2);Volume(mcm)
0.0;0.0;0.0
1.0;5.3;7.41
2.0;21.83;31.34
3.0;37.4;70.86
4.0;53.52;126.49
5.0;65.77;194.36
6.0;75.42;271.89
7.0;82.15;356.16
8.0;88.48;446.74
9.0;93.23;542.08
10.0;97.86;642.04
11.0;100.86;745.01
12.0;103.22;850.34
13.0;104.54;956.99
