GRAND_ID: 1167
DAM_NAME: -95.14111
LONG: -95.14111
LAT: 33.056322
Depth(m);Area(km2);Volume(mcm)
0.0;0.0;0.0
1.0;0.08;0.21
2.0;0.34;0.68
3.0;0.66;1.47
4.0;0.99;2.59
5.0;1.33;4.05
6.0;1.72;5.9
7.0;2.06;8.1
8.0;2.39;10.62
9.0;2.66;13.4
10.0;3.02;16.56
11.0;3.65;20.34
12.0;6.11;26.58
13.0;8.53;35.23
14.0;10.54;45.91
15.0;11.92;57.95
16.0;13.27;71.35
17.0;14.18;85.67
18.0;14.98;100.78
