GRAND_ID: 1177
DAM_NAME: -97.498242
LONG: -97.498242
LAT: 32.87062
Depth(m);Area(km2);Volume(mcm)
0.0;0.0;0.0
1.0;0.46;0.78
2.0;0.89;1.99
3.0;1.5;3.81
4.0;2.34;6.47
5.0;4.53;11.32
6.0;7.34;18.98
7.0;11.01;30.31
8.0;13.34;43.97
9.0;15.73;60.02
10.0;18.43;78.78
11.0;24.61;103.71
12.0;27.85;131.88
13.0;31.84;164.04
14.0;34.25;198.61
15.0;36.05;234.99
16.0;36.86;272.17
17.0;37.63;310.12
18.0;37.95;348.39
