GRAND_ID: 1186
DAM_NAME: -94.506269
LONG: -94.506269
LAT: 32.752105
Depth(m);Area(km2);Volume(mcm)
0.0;0.0;0.0
1.0;0.53;0.66
2.0;1.48;2.27
3.0;3.02;5.42
4.0;7.12;12.66
5.0;12.07;24.86
6.0;24.94;49.94
7.0;44.48;94.54
8.0;58.97;153.64
9.0;66.48;220.25
10.0;73.29;293.67
11.0;78.16;371.96
12.0;82.62;454.71
13.0;85.65;540.49
14.0;88.37;628.98
15.0;90.02;719.13
