GRAND_ID: 1183
DAM_NAME: -96.501952
LONG: -96.501952
LAT: 32.802749
Depth(m);Area(km2);Volume(mcm)
0.0;0.0;0.0
1.0;0.88;1.41
2.0;2.27;4.22
3.0;3.23;7.98
4.0;4.52;13.04
5.0;5.66;19.24
6.0;7.31;27.08
7.0;9.66;37.27
8.0;12.39;50.19
9.0;14.69;65.42
10.0;17.63;83.58
11.0;19.88;104.0
12.0;24.82;129.35
13.0;29.31;159.2
14.0;40.03;199.75
15.0;56.37;256.66
16.0;73.92;331.11
17.0;79.9;411.54
18.0;85.47;497.55
19.0;88.32;586.4
20.0;90.64;677.57
