GRAND_ID: 1194
DAM_NAME: -97.455208
LONG: -97.455208
LAT: 32.651213
Depth(m);Area(km2);Volume(mcm)
0.0;0.0;0.0
1.0;0.39;0.57
2.0;1.23;1.99
3.0;1.92;4.09
4.0;2.94;7.21
5.0;3.89;11.29
6.0;5.23;16.7
7.0;6.55;23.43
8.0;8.3;31.91
9.0;9.92;42.01
10.0;11.54;53.73
11.0;12.43;66.34
12.0;13.29;79.81
13.0;13.71;93.71
14.0;14.06;107.95
15.0;14.18;122.31
