GRAND_ID: 1209
DAM_NAME: -94.603493
LONG: -94.603493
LAT: 32.36481
Depth(m);Area(km2);Volume(mcm)
0.0;0.0;0.0
1.0;0.38;0.48
2.0;0.97;1.55
3.0;1.78;3.44
4.0;2.43;5.98
5.0;3.88;9.96
6.0;4.84;14.9
7.0;6.44;21.44
8.0;8.22;29.76
9.0;9.72;39.59
10.0;10.79;50.48
11.0;11.81;62.4
12.0;12.51;75.02
13.0;13.03;88.15
14.0;13.32;101.57
