GRAND_ID: 1207
DAM_NAME: -90.063542
LONG: -90.063542
LAT: 32.398735
Depth(m);Area(km2);Volume(mcm)
0.0;0.0;0.0
1.0;3.59;5.18
2.0;6.92;13.69
3.0;12.99;28.27
4.0;24.69;54.55
5.0;46.0;102.14
6.0;58.91;162.64
7.0;71.8;236.03
8.0;81.45;319.07
9.0;86.47;407.13
10.0;89.12;497.84
11.0;91.73;591.16
12.0;93.69;686.44
13.0;95.37;783.4
