GRAND_ID: 1219
DAM_NAME: -94.54375
LONG: -94.54375
LAT: 32.26875
Depth(m);Area(km2);Volume(mcm)
0.0;0.0;0.0
1.0;0.74;1.03
2.0;1.38;2.7
3.0;2.22;5.22
4.0;2.98;8.49
5.0;5.03;13.82
6.0;7.55;21.66
7.0;11.42;33.37
8.0;13.57;47.24
9.0;15.53;63.06
10.0;16.62;79.98
11.0;17.55;97.82
12.0;18.25;116.37
13.0;18.97;135.63
14.0;19.41;155.33
