GRAND_ID: 1225
DAM_NAME: -92.493905
LONG: -92.493905
LAT: 32.22316
Depth(m);Area(km2);Volume(mcm)
0.0;0.0;0.0
1.0;0.26;0.61
2.0;0.89;1.84
3.0;2.24;4.43
4.0;3.42;8.19
5.0;4.35;12.88
6.0;5.63;18.85
7.0;7.99;27.19
8.0;11.19;38.72
9.0;13.84;52.91
10.0;16.21;69.46
11.0;17.96;87.76
12.0;19.56;107.67
13.0;20.72;128.73
