GRAND_ID: 1241
DAM_NAME: -95.308862
LONG: -95.308862
LAT: 31.909552
Depth(m);Area(km2);Volume(mcm)
0.0;0.0;0.0
1.0;0.06;0.21
2.0;0.16;0.51
3.0;0.29;0.95
4.0;0.45;1.54
5.0;0.64;2.34
6.0;0.98;3.46
7.0;1.28;4.9
8.0;1.66;6.71
9.0;2.11;8.97
10.0;3.19;12.31
11.0;3.76;16.22
12.0;4.3;20.67
13.0;4.56;25.37
14.0;4.82;30.34
15.0;4.94;35.43
