GRAND_ID: 1254
DAM_NAME: -97.198025
LONG: -97.198025
LAT: 31.57696
Depth(m);Area(km2);Volume(mcm)
0.0;0.0;0.0
1.0;0.93;1.3
2.0;2.97;4.64
3.0;4.2;9.21
4.0;5.55;15.13
5.0;6.73;22.23
6.0;9.1;31.7
7.0;10.61;42.68
8.0;12.48;55.53
9.0;13.73;69.63
10.0;15.74;85.74
11.0;17.35;103.46
12.0;20.21;124.04
13.0;22.19;146.6
14.0;24.11;171.08
15.0;25.38;196.82
16.0;26.73;223.92
17.0;27.46;251.75
18.0;28.07;280.2
19.0;28.37;308.94
