GRAND_ID: 1253
DAM_NAME: -94.827083
LONG: -94.827083
LAT: 31.590041
Depth(m);Area(km2);Volume(mcm)
0.0;0.0;0.0
1.0;0.31;0.65
2.0;0.68;1.68
3.0;1.06;3.09
4.0;1.97;5.41
5.0;3.13;8.89
6.0;4.41;13.64
7.0;5.37;19.36
8.0;6.16;25.87
9.0;6.66;32.87
10.0;7.19;40.41
11.0;7.63;48.39
12.0;8.08;56.81
13.0;8.36;65.52
14.0;8.63;74.5
