GRAND_ID: 1286
DAM_NAME: -97.727235
LONG: -97.727235
LAT: 30.669258
Depth(m);Area(km2);Volume(mcm)
0.0;0.0;0.0
1.0;0.31;0.41
2.0;0.68;1.2
3.0;1.26;2.56
4.0;1.62;4.28
5.0;2.05;6.43
6.0;2.33;8.87
7.0;2.71;11.68
8.0;3.04;14.82
9.0;3.52;18.45
10.0;3.78;22.33
11.0;4.09;26.52
12.0;4.27;30.89
13.0;4.43;35.42
14.0;4.5;40.02
15.0;4.59;44.72
16.0;4.64;49.46
17.0;4.68;54.23
18.0;4.7;59.04
19.0;4.74;63.88
