GRAND_ID: 1296
DAM_NAME: -96.523958
LONG: -96.523958
LAT: 30.314583
Depth(m);Area(km2);Volume(mcm)
0.0;0.0;0.0
1.0;2.93;3.24
2.0;5.67;9.23
3.0;8.72;18.27
4.0;13.31;31.89
5.0;24.36;56.57
6.0;30.96;87.85
7.0;36.8;124.97
8.0;41.25;166.54
9.0;46.58;213.43
10.0;49.78;263.53
11.0;52.62;316.48
12.0;54.33;371.12
13.0;55.42;426.86
