GRAND_ID: 1298
DAM_NAME: -97.598958
LONG: -97.598958
LAT: 30.28599
Depth(m);Area(km2);Volume(mcm)
0.0;0.0;0.0
1.0;0.05;0.16
2.0;0.12;0.39
3.0;0.19;0.7
4.0;0.31;1.11
5.0;0.43;1.65
6.0;0.73;2.49
7.0;1.15;3.75
8.0;1.9;5.76
9.0;2.49;8.36
10.0;3.22;11.69
11.0;3.6;15.41
12.0;4.02;19.54
13.0;4.38;24.03
14.0;4.65;28.79
