GRAND_ID: 1291
DAM_NAME: -98.340775
LONG: -98.340775
LAT: 30.56016
Depth(m);Area(km2);Volume(mcm)
0.0;0.0;0.0
1.0;0.08;0.2
2.0;0.38;0.69
3.0;0.72;1.53
4.0;0.92;2.57
5.0;1.59;4.28
6.0;1.93;6.33
7.0;2.49;8.94
8.0;2.86;11.92
9.0;3.46;15.5
10.0;3.89;19.5
11.0;4.56;24.18
12.0;5.76;30.06
13.0;8.59;38.76
14.0;10.65;49.53
15.0;13.22;62.86
16.0;16.05;79.03
17.0;19.53;98.68
18.0;21.64;120.44
19.0;23.86;144.42
