GRAND_ID: 1297
DAM_NAME: -97.786268
LONG: -97.786268
LAT: 30.295339
Depth(m);Area(km2);Volume(mcm)
0.0;0.0;0.0
1.0;0.05;0.19
2.0;0.08;0.42
3.0;0.16;0.72
4.0;0.25;1.11
5.0;0.67;1.93
6.0;1.1;3.17
7.0;1.76;5.07
8.0;2.03;7.24
9.0;2.29;9.68
10.0;2.43;12.25
11.0;2.58;14.97
12.0;2.64;17.75
13.0;2.71;20.61
14.0;2.76;23.51
