GRAND_ID: 1308
DAM_NAME: -98.30674
LONG: -98.30674
LAT: 29.27879
Depth(m);Area(km2);Volume(mcm)
0.0;0.0;0.0
1.0;0.13;0.33
2.0;0.35;0.87
3.0;0.63;1.7
4.0;1.21;3.11
5.0;1.69;4.99
6.0;2.8;7.99
7.0;3.59;11.77
8.0;6.18;18.15
9.0;8.23;26.58
10.0;11.07;37.84
11.0;12.59;50.63
12.0;13.74;64.56
