GRAND_ID: 1319
DAM_NAME: -100.61468
LONG: -100.61468
LAT: 27.509991
Depth(m);Area(km2);Volume(mcm)
0.0;0.0;0.0
1.0;1.27;1.97
2.0;4.15;6.83
3.0;9.84;17.36
4.0;13.77;31.83
5.0;20.02;52.55
6.0;24.71;77.96
7.0;34.35;113.01
8.0;42.46;156.18
9.0;57.58;214.45
10.0;66.2;281.35
11.0;79.41;361.46
12.0;91.5;453.66
13.0;105.91;560.27
14.0;110.58;671.55
15.0;116.62;788.87
16.0;119.17;908.73
17.0;122.19;1031.62
18.0;123.4;1155.72
19.0;124.67;1281.09
