GRAND_ID: 1324
DAM_NAME: -99.27487
LONG: -99.27487
LAT: 25.704428
Depth(m);Area(km2);Volume(mcm)
0.0;0.0;0.0
1.0;0.39;0.75
2.0;0.76;1.86
3.0;2.11;4.33
4.0;4.54;9.23
5.0;6.44;16.02
6.0;8.6;24.98
7.0;11.44;36.78
8.0;13.86;50.99
9.0;16.52;67.87
10.0;18.81;87.04
11.0;22.23;109.63
12.0;27.38;137.36
13.0;39.47;177.19
14.0;49.5;227.04
15.0;55.22;282.62
16.0;57.23;340.21
17.0;58.76;399.33
18.0;59.49;459.17
