GRAND_ID: 1332
DAM_NAME: -98.79248
LONG: -98.79248
LAT: 22.945229
Depth(m);Area(km2);Volume(mcm)
0.0;0.0;0.0
1.0;0.06;0.17
2.0;0.13;0.41
3.0;0.22;0.75
4.0;0.82;1.68
5.0;1.58;3.38
6.0;3.28;6.77
7.0;4.81;11.7
8.0;6.7;18.52
9.0;8.89;27.52
10.0;12.7;40.33
11.0;16.49;56.93
12.0;20.2;77.25
13.0;21.62;98.98
14.0;22.32;121.41
15.0;22.75;144.28
16.0;23.11;167.5
