GRAND_ID: 1340
DAM_NAME: -103.352095
LONG: -103.352095
LAT: 21.643907
Depth(m);Area(km2);Volume(mcm)
0.0;0.0;0.0
1.0;0.05;0.17
2.0;0.12;0.42
3.0;0.27;0.81
4.0;0.71;1.65
5.0;1.22;2.99
6.0;1.85;4.97
7.0;2.28;7.37
8.0;2.67;10.17
9.0;3.0;13.29
10.0;3.29;16.7
11.0;3.54;20.37
12.0;3.76;24.25
13.0;3.98;28.35
14.0;4.14;32.61
15.0;4.23;36.96
16.0;4.29;41.38
