GRAND_ID: 1341
DAM_NAME: -101.737803
LONG: -101.737803
LAT: 21.49925
Depth(m);Area(km2);Volume(mcm)
0.0;0.0;0.0
1.0;0.11;0.21
2.0;0.25;0.56
3.0;0.4;1.06
4.0;0.63;1.79
5.0;0.79;2.68
6.0;0.94;3.73
7.0;1.07;4.89
8.0;1.2;6.19
9.0;1.33;7.62
10.0;1.47;9.19
11.0;1.58;10.87
12.0;1.7;12.66
13.0;1.8;14.56
14.0;1.89;16.56
15.0;1.95;18.61
16.0;2.01;20.72
17.0;2.05;22.88
18.0;2.08;25.06
19.0;2.1;27.26
20.0;2.12;29.48
21.0;2.14;31.72
22.0;2.15;33.97
