GRAND_ID: 1350
DAM_NAME: -99.372262
LONG: -99.372262
LAT: 20.431626
Depth(m);Area(km2);Volume(mcm)
0.0;0.0;0.0
1.0;0.22;0.34
2.0;0.69;1.16
3.0;1.11;2.39
4.0;1.45;3.97
5.0;1.66;5.75
6.0;1.8;7.68
7.0;1.92;9.73
8.0;2.04;11.9
9.0;2.14;14.17
10.0;2.22;16.51
11.0;2.27;18.92
12.0;2.31;21.35
