GRAND_ID: 1352
DAM_NAME: -100.737696
LONG: -100.737696
LAT: 20.295643
Depth(m);Area(km2);Volume(mcm)
0.0;0.0;0.0
1.0;0.05;0.16
2.0;0.11;0.38
3.0;0.16;0.65
4.0;0.22;0.98
5.0;0.27;1.35
6.0;0.31;1.77
7.0;0.35;2.23
8.0;0.41;2.75
9.0;0.46;3.32
10.0;0.51;3.94
11.0;0.57;4.61
12.0;0.63;5.35
13.0;0.71;6.16
14.0;0.77;7.04
15.0;0.83;7.98
16.0;0.88;8.96
17.0;0.94;10.01
18.0;0.99;11.1
