GRAND_ID: 1385
DAM_NAME: -97.822422
LONG: -97.822422
LAT: 17.723388
Depth(m);Area(km2);Volume(mcm)
0.0;0.0;0.0
1.0;0.03;0.14
2.0;0.06;0.31
3.0;0.09;0.5
4.0;0.12;0.73
5.0;0.19;1.03
6.0;0.27;1.41
7.0;0.47;1.98
8.0;0.67;2.76
9.0;0.8;3.67
10.0;0.91;4.69
11.0;1.03;5.82
12.0;1.14;7.07
13.0;1.24;8.42
14.0;1.33;9.86
15.0;1.45;11.41
16.0;1.59;13.11
17.0;1.74;14.96
18.0;1.87;16.93
19.0;1.99;19.03
20.0;2.1;21.23
21.0;2.18;23.52
22.0;2.25;25.88
