GRAND_ID: 1399
DAM_NAME: -82.16875
LONG: -82.16875
LAT: 50.001332
Depth(m);Area(km2);Volume(mcm)
0.0;0.0;0.0
1.0;0.33;0.47
2.0;0.62;1.22
3.0;0.83;2.19
4.0;1.14;3.47
5.0;1.4;5.01
6.0;1.9;7.05
7.0;2.54;9.73
8.0;3.59;13.46
9.0;4.68;18.27
10.0;7.51;25.92
11.0;9.93;35.99
12.0;11.78;47.91
13.0;13.17;61.21
14.0;14.3;75.65
15.0;14.9;90.69
16.0;15.46;106.28
