GRAND_ID: 1433
DAM_NAME: -87.637068
LONG: -87.637068
LAT: 46.429775
Depth(m);Area(km2);Volume(mcm)
0.0;0.0;0.0
1.0;0.15;0.33
2.0;0.37;0.87
3.0;0.48;1.53
4.0;0.67;2.37
5.0;0.76;3.31
6.0;0.9;4.39
7.0;0.98;5.54
8.0;1.11;6.83
9.0;1.21;8.21
10.0;1.59;9.98
11.0;1.99;12.14
12.0;2.54;14.86
13.0;2.77;17.81
14.0;3.05;21.04
15.0;3.15;24.37
16.0;3.3;27.85
