GRAND_ID: 1462
DAM_NAME: -76.345037
LONG: -76.345037
LAT: 45.417525
Depth(m);Area(km2);Volume(mcm)
0.0;0.0;0.0
1.0;0.18;0.31
2.0;1.29;1.74
3.0;2.38;4.26
4.0;3.1;7.49
5.0;3.72;11.35
6.0;4.68;16.17
7.0;6.2;22.51
8.0;8.41;31.05
9.0;9.97;41.15
10.0;11.39;52.68
11.0;12.22;65.03
12.0;12.92;78.09
