GRAND_ID: 1468
DAM_NAME: -76.758039
LONG: -76.758039
LAT: 45.242076
Depth(m);Area(km2);Volume(mcm)
0.0;0.0;0.0
1.0;0.11;0.24
2.0;0.21;0.58
3.0;0.37;1.07
4.0;0.53;1.73
5.0;0.86;2.71
6.0;1.32;4.16
7.0;3.02;7.3
8.0;4.29;11.72
9.0;6.31;18.15
10.0;8.34;26.62
11.0;10.29;37.03
12.0;11.1;48.26
13.0;12.2;60.59
14.0;12.72;73.44
15.0;13.53;87.09
16.0;14.0;101.22
17.0;14.58;115.92
18.0;14.91;130.96
