GRAND_ID: 1482
DAM_NAME: -86.148921
LONG: -86.148921
LAT: 44.636681
Depth(m);Area(km2);Volume(mcm)
0.0;0.0;0.0
1.0;0.24;0.35
2.0;1.46;1.92
3.0;3.38;5.41
4.0;7.59;13.1
5.0;12.72;25.93
6.0;16.53;42.57
7.0;20.66;63.34
8.0;27.34;90.79
9.0;30.58;121.48
10.0;33.11;154.7
11.0;34.58;189.39
12.0;36.69;226.18
13.0;38.27;264.56
14.0;39.79;304.46
15.0;40.53;345.1
16.0;41.17;386.38
17.0;41.5;427.98
