GRAND_ID: 1493
DAM_NAME: -88.45459
LONG: -88.45459
LAT: 44.185016
Depth(m);Area(km2);Volume(mcm)
0.0;0.0;0.0
1.0;11.65;14.53
2.0;21.22;38.63
3.0;75.85;117.35
4.0;160.27;280.5
5.0;288.11;571.49
6.0;399.62;973.99
7.0;551.33;1528.2
8.0;600.07;2131.14
9.0;650.6;2784.62
10.0;676.3;3463.8
11.0;697.83;4164.5
12.0;708.23;4875.61
13.0;715.9;5594.38
14.0;719.87;6317.13
