GRAND_ID: 1500
DAM_NAME: -86.435417
LONG: -86.435417
LAT: 43.890828
Depth(m);Area(km2);Volume(mcm)
0.0;0.0;0.0
1.0;0.04;0.14
2.0;0.09;0.33
3.0;0.16;0.59
4.0;0.23;0.93
5.0;0.34;1.37
6.0;0.44;1.92
7.0;0.64;2.66
8.0;0.88;3.64
9.0;1.4;5.14
10.0;1.78;7.02
11.0;2.29;9.41
12.0;2.6;12.12
13.0;2.95;15.17
14.0;3.06;18.34
15.0;3.15;21.59
16.0;3.19;24.88
17.0;3.25;28.24
18.0;3.28;31.62
19.0;3.32;35.04
20.0;3.34;38.48
21.0;3.36;41.94
