GRAND_ID: 1516
DAM_NAME: -75.426042
LONG: -75.426042
LAT: 43.277318
Depth(m);Area(km2);Volume(mcm)
0.0;0.0;0.0
1.0;0.68;0.79
2.0;1.53;2.44
3.0;2.62;5.17
4.0;3.3;8.58
5.0;4.45;13.14
6.0;5.14;18.39
7.0;6.1;24.6
8.0;6.69;31.4
9.0;7.77;39.28
10.0;8.53;47.92
11.0;9.34;57.37
12.0;9.73;67.21
13.0;10.19;77.52
14.0;10.49;88.12
15.0;10.8;99.03
16.0;10.96;110.11
