GRAND_ID: 1515
DAM_NAME: -89.723311
LONG: -89.723311
LAT: 43.311735
Depth(m);Area(km2);Volume(mcm)
0.0;0.0;0.0
1.0;0.04;0.14
2.0;0.06;0.31
3.0;0.2;0.61
4.0;1.0;1.72
5.0;4.03;5.86
6.0;11.7;17.67
7.0;20.24;38.02
8.0;25.12;63.25
9.0;31.14;94.5
10.0;34.1;128.71
11.0;36.59;165.41
12.0;37.99;203.5
13.0;39.42;243.03
14.0;40.26;283.39
15.0;41.11;324.62
16.0;41.58;366.3
