GRAND_ID: 1538
DAM_NAME: -88.435716
LONG: -88.435716
LAT: 42.588595
Depth(m);Area(km2);Volume(mcm)
0.0;0.0;0.0
1.0;1.98;2.09
2.0;4.52;6.72
3.0;6.04;12.87
4.0;10.49;23.48
5.0;13.4;37.0
6.0;16.2;53.31
7.0;17.24;70.66
8.0;18.7;89.47
9.0;19.42;109.01
10.0;20.55;129.67
11.0;21.1;150.88
12.0;21.89;172.89
13.0;22.25;195.25
14.0;22.79;218.15
15.0;23.03;241.3
