GRAND_ID: 1572
DAM_NAME: -81.079025
LONG: -81.079025
LAT: 41.154381
Depth(m);Area(km2);Volume(mcm)
0.0;0.0;0.0
1.0;0.11;0.21
2.0;0.49;0.8
3.0;0.85;1.75
4.0;1.29;3.14
5.0;1.54;4.79
6.0;1.98;6.87
7.0;2.23;9.2
8.0;2.72;12.02
9.0;3.07;15.19
10.0;3.69;18.99
11.0;4.26;23.35
12.0;6.52;29.97
13.0;8.26;38.33
14.0;9.64;48.07
15.0;10.22;58.4
16.0;11.02;69.52
17.0;11.42;81.04
18.0;11.98;93.12
19.0;12.24;105.45
