GRAND_ID: 1597
DAM_NAME: -86.755208
LONG: -86.755208
LAT: 40.657388
Depth(m);Area(km2);Volume(mcm)
0.0;0.0;0.0
1.0;0.07;0.18
2.0;0.23;0.53
3.0;0.34;0.98
4.0;0.4;1.5
5.0;0.75;2.36
6.0;1.81;4.29
7.0;2.81;7.21
8.0;3.7;11.02
9.0;4.22;15.36
10.0;4.75;20.23
11.0;5.1;25.44
12.0;5.5;31.06
13.0;5.77;36.94
14.0;6.14;43.2
15.0;6.37;49.68
