GRAND_ID: 1601
DAM_NAME: -79.097979
LONG: -79.097979
LAT: 40.598044
Depth(m);Area(km2);Volume(mcm)
0.0;0.0;0.0
1.0;0.04;0.18
2.0;0.19;0.52
3.0;0.25;0.91
4.0;0.33;1.39
5.0;0.38;1.91
6.0;0.53;2.59
7.0;0.66;3.39
8.0;0.91;4.45
9.0;1.06;5.65
10.0;1.25;7.05
11.0;1.36;8.56
12.0;1.51;10.22
13.0;1.6;11.96
14.0;1.71;13.82
15.0;1.78;15.75
16.0;1.87;17.76
17.0;1.92;19.83
18.0;1.99;21.96
19.0;2.02;24.13
