GRAND_ID: 1610
DAM_NAME: -75.186908
LONG: -75.186908
LAT: 40.469862
Depth(m);Area(km2);Volume(mcm)
0.0;0.0;0.0
1.0;0.04;0.16
2.0;0.11;0.39
3.0;0.33;0.84
4.0;1.05;2.02
5.0;1.56;3.69
6.0;2.38;6.19
7.0;3.16;9.48
8.0;4.0;13.6
9.0;4.65;18.36
10.0;5.33;23.81
11.0;5.84;29.77
12.0;6.29;36.18
13.0;6.59;42.89
14.0;6.84;49.85
