GRAND_ID: 1618
DAM_NAME: -75.480303
LONG: -75.480303
LAT: 40.342319
Depth(m);Area(km2);Volume(mcm)
0.0;0.0;0.0
1.0;0.02;0.13
2.0;0.04;0.28
3.0;0.08;0.47
4.0;0.16;0.74
5.0;0.46;1.31
6.0;1.04;2.46
7.0;1.84;4.41
8.0;2.46;6.98
9.0;2.84;9.93
10.0;3.04;13.08
11.0;3.19;16.38
12.0;3.29;19.78
13.0;3.4;23.29
