GRAND_ID: 1619
DAM_NAME: -81.279319
LONG: -81.279319
LAT: 40.270656
Depth(m);Area(km2);Volume(mcm)
0.0;0.0;0.0
1.0;0.2;0.37
2.0;0.36;0.89
3.0;0.77;1.83
4.0;1.19;3.18
5.0;2.16;5.51
6.0;2.93;8.61
7.0;3.94;12.71
8.0;4.33;17.2
9.0;5.04;22.41
10.0;5.42;27.99
11.0;6.05;34.21
12.0;6.37;40.74
13.0;6.96;47.87
14.0;7.28;55.31
15.0;7.71;63.19
16.0;7.95;71.3
17.0;8.33;79.8
18.0;8.51;88.47
