GRAND_ID: 1623
DAM_NAME: -83.126311
LONG: -83.126311
LAT: 40.156537
Depth(m);Area(km2);Volume(mcm)
0.0;0.0;0.0
1.0;0.43;0.84
2.0;0.85;2.1
3.0;1.33;3.84
4.0;1.71;5.96
5.0;2.3;8.68
6.0;2.65;11.74
7.0;3.08;15.24
8.0;3.25;18.9
9.0;3.48;22.79
10.0;3.6;26.8
11.0;3.76;30.97
12.0;3.81;35.19
13.0;3.9;39.51
14.0;3.92;43.84
