GRAND_ID: 1625
DAM_NAME: -88.880147
LONG: -88.880147
LAT: 40.140942
Depth(m);Area(km2);Volume(mcm)
0.0;0.0;0.0
1.0;0.11;0.26
2.0;0.17;0.58
3.0;0.27;0.99
4.0;0.33;1.46
5.0;0.43;2.04
6.0;0.5;2.69
7.0;0.62;3.45
8.0;0.74;4.34
9.0;1.28;5.76
10.0;2.79;8.7
11.0;5.59;14.44
12.0;7.85;22.43
13.0;11.96;34.53
14.0;17.1;51.78
15.0;22.72;74.64
16.0;25.05;99.84
