GRAND_ID: 1637
DAM_NAME: -85.984027
LONG: -85.984027
LAT: 39.907497
Depth(m);Area(km2);Volume(mcm)
0.0;0.0;0.0
1.0;0.08;0.18
2.0;0.18;0.46
3.0;0.65;1.21
4.0;1.37;2.68
5.0;2.41;5.19
6.0;3.38;8.67
7.0;4.77;13.54
8.0;5.43;19.07
9.0;6.07;25.24
10.0;6.5;31.84
11.0;6.99;38.93
12.0;7.28;46.32
13.0;7.53;53.95
