GRAND_ID: 1645
DAM_NAME: -87.067708
LONG: -87.067708
LAT: 39.720158
Depth(m);Area(km2);Volume(mcm)
0.0;0.0;0.0
1.0;0.47;0.61
2.0;1.37;2.12
3.0;2.52;4.78
4.0;3.17;8.08
5.0;3.85;12.07
6.0;4.35;16.56
7.0;4.91;21.61
8.0;5.25;27.0
9.0;5.61;32.74
10.0;5.88;38.76
11.0;6.2;45.1
12.0;6.41;51.65
13.0;6.67;58.46
14.0;6.83;65.43
15.0;7.03;72.6
16.0;7.16;79.89
17.0;7.31;87.34
18.0;7.38;94.86
19.0;7.47;102.47
