GRAND_ID: 1640
DAM_NAME: -86.302474
LONG: -86.302474
LAT: 39.823628
Depth(m);Area(km2);Volume(mcm)
0.0;0.0;0.0
1.0;0.19;0.32
2.0;0.36;0.8
3.0;0.75;1.68
4.0;1.05;2.86
5.0;1.57;4.56
6.0;2.05;6.74
7.0;2.67;9.54
8.0;3.19;12.86
9.0;3.83;16.82
10.0;4.19;21.15
11.0;4.64;25.92
12.0;4.92;30.97
13.0;5.18;36.28
14.0;5.32;41.73
