GRAND_ID: 1650
DAM_NAME: -82.056248
LONG: -82.056248
LAT: 39.539648
Depth(m);Area(km2);Volume(mcm)
0.0;0.0;0.0
1.0;0.16;0.33
2.0;0.47;0.96
3.0;0.66;1.79
4.0;0.89;2.84
5.0;1.1;4.11
6.0;1.47;5.75
7.0;1.75;7.66
8.0;1.99;9.82
9.0;2.11;12.09
10.0;2.26;14.52
11.0;2.37;17.05
12.0;2.49;19.7
13.0;2.56;22.43
14.0;2.66;25.26
15.0;2.73;28.15
16.0;2.81;31.12
17.0;2.85;34.14
18.0;2.91;37.22
