GRAND_ID: 1669
DAM_NAME: -86.416189
LONG: -86.416189
LAT: 39.271623
Depth(m);Area(km2);Volume(mcm)
0.0;0.0;0.0
1.0;0.22;0.44
2.0;0.49;1.14
3.0;1.3;2.66
4.0;1.88;4.76
5.0;2.81;7.8
6.0;3.74;11.75
7.0;4.41;16.39
8.0;4.78;21.39
9.0;5.1;26.71
10.0;5.3;32.23
11.0;5.51;37.95
12.0;5.64;43.81
13.0;5.79;49.82
14.0;5.89;55.93
15.0;5.98;62.13
16.0;6.02;68.36
