GRAND_ID: 1676
DAM_NAME: -77.299656
LONG: -77.299656
LAT: 39.183082
Depth(m);Area(km2);Volume(mcm)
0.0;0.0;0.0
1.0;0.08;0.19
2.0;0.18;0.47
3.0;0.25;0.83
4.0;0.4;1.33
5.0;0.55;1.99
6.0;0.73;2.82
7.0;0.86;3.79
8.0;1.02;4.91
9.0;1.18;6.19
10.0;1.37;7.66
11.0;1.57;9.34
12.0;1.75;11.2
13.0;1.85;13.15
