GRAND_ID: 1691
DAM_NAME: -80.617632
LONG: -80.617632
LAT: 38.840775
Depth(m);Area(km2);Volume(mcm)
0.0;0.0;0.0
1.0;0.12;0.25
2.0;0.56;0.95
3.0;0.94;2.02
4.0;1.48;3.64
5.0;1.82;5.59
6.0;2.31;8.03
7.0;2.58;10.74
8.0;2.92;13.8
9.0;3.1;17.04
10.0;3.32;20.5
11.0;3.41;24.05
12.0;3.52;27.7
