GRAND_ID: 1690
DAM_NAME: -86.868741
LONG: -86.868741
LAT: 38.885272
Depth(m);Area(km2);Volume(mcm)
0.0;0.0;0.0
1.0;0.14;0.33
2.0;0.37;0.88
3.0;0.49;1.55
4.0;0.74;2.48
5.0;0.92;3.58
6.0;1.48;5.24
7.0;1.78;7.2
8.0;2.24;9.62
9.0;2.52;12.32
10.0;2.86;15.37
11.0;3.05;18.61
12.0;3.26;22.05
13.0;3.37;25.6
14.0;3.49;29.27
15.0;3.56;33.02
16.0;3.63;36.84
17.0;3.67;40.69
