GRAND_ID: 1706
DAM_NAME: -82.413806
LONG: -82.413806
LAT: 38.301903
Depth(m);Area(km2);Volume(mcm)
0.0;0.0;0.0
1.0;0.08;0.2
2.0;0.16;0.48
3.0;0.39;0.99
4.0;0.63;1.74
5.0;0.99;2.85
6.0;1.33;4.3
7.0;1.79;6.21
8.0;2.08;8.41
9.0;2.39;10.92
10.0;2.59;13.63
11.0;2.83;16.58
12.0;2.98;19.68
13.0;3.19;22.98
14.0;3.33;26.43
