GRAND_ID: 1707
DAM_NAME: -82.984298
LONG: -82.984298
LAT: 38.251318
Depth(m);Area(km2);Volume(mcm)
0.0;0.0;0.0
1.0;0.09;0.22
2.0;0.2;0.54
3.0;0.27;0.94
4.0;0.39;1.46
5.0;0.48;2.06
6.0;0.67;2.86
7.0;0.81;3.8
8.0;1.0;4.92
9.0;1.2;6.25
10.0;1.99;8.38
11.0;2.62;11.12
12.0;3.13;14.38
13.0;3.43;17.93
14.0;3.73;21.79
