GRAND_ID: 1712
DAM_NAME: -82.386678
LONG: -82.386678
LAT: 38.142806
Depth(m);Area(km2);Volume(mcm)
0.0;0.0;0.0
1.0;0.19;0.34
2.0;0.29;0.77
3.0;0.51;1.43
4.0;0.71;2.28
5.0;1.05;3.47
6.0;1.28;4.89
7.0;1.6;6.64
8.0;1.84;8.62
9.0;2.14;10.9
10.0;2.35;13.4
11.0;2.61;16.15
12.0;2.77;19.06
13.0;3.02;22.23
14.0;3.17;25.54
15.0;3.4;29.08
16.0;3.53;32.76
17.0;3.73;36.63
18.0;3.85;40.63
19.0;4.01;44.79
20.0;4.13;49.06
21.0;4.27;53.48
22.0;4.36;57.99
