GRAND_ID: 1726
DAM_NAME: -82.725985
LONG: -82.725985
LAT: 37.734423
Depth(m);Area(km2);Volume(mcm)
0.0;0.0;0.0
1.0;0.17;0.31
2.0;0.56;1.01
3.0;0.84;1.99
4.0;1.27;3.39
5.0;1.6;5.13
6.0;2.07;7.34
7.0;2.41;9.89
8.0;2.88;12.9
9.0;3.12;16.15
10.0;3.38;19.67
11.0;3.58;23.39
12.0;3.79;27.31
13.0;3.95;31.4
14.0;4.18;35.71
15.0;4.31;40.16
16.0;4.5;44.79
17.0;4.6;49.53
18.0;4.72;54.39
19.0;4.82;59.35
