GRAND_ID: 1749
DAM_NAME: -87.032855
LONG: -87.032855
LAT: 37.08036
Depth(m);Area(km2);Volume(mcm)
0.0;0.0;0.0
1.0;0.22;0.43
2.0;0.48;1.12
3.0;0.87;2.2
4.0;1.08;3.49
5.0;1.38;5.08
6.0;1.58;6.87
7.0;1.8;8.89
8.0;1.94;11.04
9.0;2.13;13.38
10.0;2.26;15.85
11.0;2.39;18.45
12.0;2.48;21.15
