GRAND_ID: 1768
DAM_NAME: -86.658869
LONG: -86.658869
LAT: 36.29189
Depth(m);Area(km2);Volume(mcm)
0.0;0.0;0.0
1.0;0.06;0.21
2.0;0.27;0.63
3.0;1.08;1.85
4.0;5.25;7.24
5.0;11.6;18.99
6.0;22.41;41.54
7.0;29.48;71.16
8.0;38.78;110.09
9.0;45.01;155.24
10.0;54.87;210.25
11.0;62.2;272.6
12.0;71.32;344.06
13.0;79.07;423.29
14.0;88.05;511.48
15.0;93.32;604.95
16.0;99.58;704.67
17.0;103.16;807.98
18.0;106.97;915.1
