GRAND_ID: 1771
DAM_NAME: -79.732884
LONG: -79.732884
LAT: 36.188961
Depth(m);Area(km2);Volume(mcm)
0.0;0.0;0.0
1.0;0.24;0.37
2.0;0.85;1.36
3.0;1.26;2.74
4.0;1.75;4.62
5.0;2.08;6.82
6.0;2.51;9.47
7.0;2.87;12.46
8.0;3.81;16.4
9.0;4.42;20.95
10.0;5.13;26.21
11.0;5.59;31.93
12.0;6.11;38.17
13.0;6.42;44.72
14.0;6.75;51.6
