GRAND_ID: 1796
DAM_NAME: -79.06867
LONG: -79.06867
LAT: 35.656806
Depth(m);Area(km2);Volume(mcm)
0.0;0.0;0.0
1.0;0.14;0.3
2.0;0.28;0.73
3.0;0.54;1.43
4.0;1.5;3.09
5.0;3.99;7.23
6.0;7.71;15.1
7.0;12.87;28.12
8.0;18.32;46.6
9.0;24.73;71.49
10.0;28.93;100.58
11.0;33.95;134.68
12.0;37.67;172.51
13.0;41.34;214.01
14.0;44.27;258.43
15.0;47.23;305.82
16.0;49.32;355.3
17.0;51.19;406.64
