GRAND_ID: 1813
DAM_NAME: -79.602083
LONG: -79.602083
LAT: 35.239826
Depth(m);Area(km2);Volume(mcm)
0.0;0.0;0.0
1.0;0.11;0.32
2.0;0.26;0.78
3.0;0.35;1.34
4.0;0.47;2.02
5.0;0.58;2.8
6.0;0.74;3.75
7.0;0.92;4.88
8.0;1.21;6.3
9.0;1.39;7.9
10.0;1.66;9.76
11.0;1.82;11.78
12.0;2.02;14.01
13.0;2.2;16.42
14.0;2.48;19.1
15.0;2.68;21.99
16.0;2.94;25.13
