GRAND_ID: 1821
DAM_NAME: -82.020144
LONG: -82.020144
LAT: 35.109028
Depth(m);Area(km2);Volume(mcm)
0.0;0.0;0.0
1.0;0.4;0.51
2.0;0.72;1.35
3.0;1.11;2.58
4.0;1.42;4.11
5.0;1.92;6.14
6.0;2.49;8.75
7.0;3.36;12.22
8.0;4.24;16.57
9.0;5.47;22.15
10.0;6.06;28.33
11.0;6.65;35.09
12.0;6.95;42.15
