GRAND_ID: 1846
DAM_NAME: -87.972917
LONG: -87.972917
LAT: 34.452307
Depth(m);Area(km2);Volume(mcm)
0.0;0.0;0.0
1.0;0.11;0.42
2.0;0.24;0.96
3.0;0.32;1.58
4.0;0.43;2.31
5.0;0.53;3.14
6.0;0.67;4.11
7.0;0.79;5.2
8.0;1.03;6.53
9.0;1.23;8.06
10.0;1.58;9.94
11.0;1.95;12.19
12.0;2.41;14.91
13.0;2.7;17.91
14.0;3.24;21.45
15.0;3.7;25.46
16.0;4.42;30.18
17.0;4.85;35.33
18.0;5.3;40.93
19.0;5.57;46.8
20.0;5.91;53.01
21.0;6.1;59.41
