GRAND_ID: 1853
DAM_NAME: -81.326986
LONG: -81.326986
LAT: 34.314635
Depth(m);Area(km2);Volume(mcm)
0.0;0.0;0.0
1.0;0.69;0.94
2.0;1.47;2.65
3.0;2.46;5.36
4.0;3.75;9.35
5.0;4.9;14.49
6.0;6.13;20.87
7.0;7.39;28.5
8.0;9.49;38.24
9.0;11.27;49.75
10.0;14.57;64.56
11.0;17.47;82.28
12.0;20.64;103.16
13.0;22.88;126.29
14.0;25.26;151.79
15.0;26.9;178.93
16.0;27.69;206.87
17.0;28.2;235.32
