GRAND_ID: 1857
DAM_NAME: -81.331876
LONG: -81.331876
LAT: 34.261911
Depth(m);Area(km2);Volume(mcm)
0.0;0.0;0.0
1.0;0.52;0.68
2.0;1.44;2.29
3.0;2.69;5.15
4.0;3.98;9.3
5.0;5.3;14.77
6.0;7.47;22.41
7.0;9.15;31.73
8.0;10.98;42.88
9.0;12.15;55.19
10.0;13.29;68.65
11.0;14.12;82.94
12.0;14.94;98.05
13.0;15.49;113.7
14.0;16.0;129.87
15.0;16.33;146.36
