GRAND_ID: 1858
DAM_NAME: -82.611458
LONG: -82.611458
LAT: 34.257845
Depth(m);Area(km2);Volume(mcm)
0.0;0.0;0.0
1.0;0.1;0.25
2.0;0.21;0.61
3.0;0.3;1.06
4.0;0.47;1.69
5.0;0.62;2.46
6.0;0.85;3.46
7.0;0.99;4.61
8.0;1.16;5.92
9.0;1.3;7.37
10.0;1.49;9.02
11.0;1.8;10.97
12.0;2.32;13.45
13.0;2.67;16.27
14.0;3.25;19.67
15.0;3.72;23.55
16.0;4.31;28.01
17.0;4.66;32.82
18.0;5.03;38.0
19.0;5.25;43.41
20.0;5.49;49.05
