GRAND_ID: 1860
DAM_NAME: -85.753125
LONG: -85.753125
LAT: 34.173958
Depth(m);Area(km2);Volume(mcm)
0.0;0.0;0.0
1.0;4.24;5.71
2.0;9.02;16.19
3.0;18.3;35.95
4.0;25.78;63.21
5.0;31.99;96.66
6.0;35.62;133.76
7.0;39.82;175.05
8.0;43.07;219.58
9.0;47.3;268.35
10.0;49.63;319.45
11.0;51.69;372.61
12.0;52.87;426.95
