GRAND_ID: 1870
DAM_NAME: -86.056267
LONG: -86.056267
LAT: 33.785434
Depth(m);Area(km2);Volume(mcm)
0.0;0.0;0.0
1.0;0.29;0.59
2.0;1.07;1.95
3.0;1.89;4.14
4.0;3.64;8.08
5.0;5.15;13.52
6.0;7.38;21.2
7.0;9.09;30.58
8.0;11.99;42.86
9.0;14.58;57.74
10.0;19.87;77.91
11.0;23.71;101.91
12.0;27.42;129.63
13.0;29.86;159.78
14.0;32.43;192.51
15.0;34.23;227.03
16.0;35.92;263.25
