GRAND_ID: 1871
DAM_NAME: -83.934375
LONG: -83.934375
LAT: 33.732264
Depth(m);Area(km2);Volume(mcm)
0.0;0.0;0.0
1.0;0.13;0.36
2.0;0.33;0.92
3.0;0.55;1.7
4.0;0.83;2.76
5.0;1.04;4.04
6.0;1.29;5.56
7.0;1.49;7.28
8.0;1.75;9.27
9.0;1.93;11.43
10.0;2.13;13.8
11.0;2.26;16.29
12.0;2.41;18.93
