GRAND_ID: 1881
DAM_NAME: -85.033178
LONG: -85.033178
LAT: 33.424707
Depth(m);Area(km2);Volume(mcm)
0.0;0.0;0.0
1.0;0.09;0.22
2.0;0.17;0.52
3.0;0.22;0.88
4.0;0.29;1.3
5.0;0.35;1.78
6.0;0.44;2.36
7.0;0.54;3.03
8.0;0.77;3.94
9.0;1.06;5.14
10.0;1.4;6.68
11.0;1.63;8.44
12.0;1.83;10.4
13.0;1.97;12.51
14.0;2.14;14.78
15.0;2.28;17.19
16.0;2.5;19.82
17.0;2.74;22.69
18.0;2.98;25.81
19.0;3.2;29.14
20.0;3.46;32.74
21.0;3.63;36.5
