GRAND_ID: 1893
DAM_NAME: -81.632592
LONG: -81.632592
LAT: 33.161577
Depth(m);Area(km2);Volume(mcm)
0.0;0.0;0.0
1.0;0.21;0.38
2.0;0.45;1.0
3.0;0.66;1.82
4.0;0.99;2.98
5.0;1.23;4.38
6.0;1.43;5.98
7.0;1.6;7.75
8.0;1.76;9.67
9.0;1.95;11.79
10.0;2.19;14.15
11.0;2.47;16.78
12.0;2.8;19.75
13.0;3.05;22.97
14.0;3.29;26.43
15.0;3.51;30.1
16.0;3.73;34.0
17.0;3.91;38.07
