GRAND_ID: 1891
DAM_NAME: -81.51875
LONG: -81.51875
LAT: 33.236584
Depth(m);Area(km2);Volume(mcm)
0.0;0.0;0.0
1.0;0.32;0.52
2.0;0.68;1.4
3.0;0.99;2.59
4.0;1.34;4.13
5.0;1.79;6.12
6.0;2.54;8.86
7.0;3.54;12.6
8.0;4.73;17.54
9.0;6.02;23.75
10.0;7.03;30.98
11.0;7.72;38.89
12.0;8.51;47.6
13.0;9.08;56.88
