GRAND_ID: 1915
DAM_NAME: -88.33551
LONG: -88.33551
LAT: 30.714731
Depth(m);Area(km2);Volume(mcm)
0.0;0.0;0.0
1.0;0.17;0.35
2.0;0.4;0.94
3.0;0.85;1.96
4.0;1.38;3.53
5.0;1.99;5.7
6.0;2.98;8.86
7.0;4.84;13.88
8.0;6.45;20.5
9.0;8.61;29.29
10.0;11.09;40.56
11.0;12.8;53.54
12.0;13.99;67.71
13.0;14.85;82.74
14.0;15.36;98.28
