GRAND_ID: 1916
DAM_NAME: -84.866115
LONG: -84.866115
LAT: 30.708037
Depth(m);Area(km2);Volume(mcm)
0.0;0.0;0.0
1.0;15.51;16.22
2.0;32.07;49.0
3.0;45.36;95.07
4.0;72.04;167.82
5.0;90.61;259.14
6.0;104.59;364.44
7.0;115.01;480.16
8.0;123.92;604.8
9.0;131.38;736.89
10.0;137.53;875.13
11.0;141.29;1017.14
12.0;144.11;1161.96
13.0;145.65;1308.31
