GRAND_ID: 1914
DAM_NAME: -89.124606
LONG: -89.124606
LAT: 30.874179
Depth(m);Area(km2);Volume(mcm)
0.0;0.0;0.0
1.0;0.06;0.2
2.0;0.11;0.46
3.0;0.2;0.8
4.0;0.31;1.26
5.0;0.46;1.86
6.0;0.59;2.59
7.0;0.82;3.55
8.0;1.09;4.78
9.0;1.36;6.28
10.0;1.57;7.99
11.0;1.79;9.92
12.0;1.97;12.03
13.0;2.13;14.3
14.0;2.25;16.69
