GRAND_ID: 1917
DAM_NAME: -84.64701
LONG: -84.64701
LAT: 30.390823
Depth(m);Area(km2);Volume(mcm)
0.0;0.0;0.0
1.0;2.68;3.45
2.0;5.22;9.43
3.0;7.72;17.92
4.0;9.79;28.48
5.0;12.4;41.65
6.0;16.12;58.53
7.0;20.25;79.55
8.0;23.57;103.89
9.0;26.8;131.46
10.0;29.27;161.49
11.0;31.66;193.92
12.0;33.62;228.32
13.0;35.18;264.27
14.0;36.42;301.46
