GRAND_ID: 1960
DAM_NAME: -79.364583
LONG: -79.364583
LAT: 21.802817
Depth(m);Area(km2);Volume(mcm)
0.0;0.0;0.0
1.0;0.42;0.62
2.0;1.81;2.63
3.0;2.96;5.79
4.0;5.18;11.17
5.0;7.39;18.76
6.0;9.22;28.18
7.0;11.12;39.51
8.0;13.98;53.69
9.0;16.67;70.55
10.0;19.22;89.97
11.0;21.45;111.63
12.0;23.84;135.67
13.0;26.55;162.42
14.0;30.47;193.09
15.0;36.81;230.09
16.0;47.23;277.53
17.0;51.0;328.73
18.0;53.4;382.33
19.0;54.55;437.08
