GRAND_ID: 2028
DAM_NAME: -67.248489
LONG: -67.248489
LAT: 47.268843
Depth(m);Area(km2);Volume(mcm)
0.0;0.0;0.0
1.0;0.24;0.68
2.0;0.49;1.6
3.0;0.66;2.7
4.0;0.99;4.13
5.0;1.23;5.8
6.0;1.56;7.8
7.0;1.84;10.07
8.0;2.31;12.82
9.0;2.72;15.98
10.0;3.4;19.82
11.0;3.78;24.04
12.0;4.32;28.81
13.0;4.71;33.95
14.0;5.26;39.65
15.0;5.77;45.86
16.0;6.62;52.92
17.0;7.57;60.93
18.0;9.02;70.39
19.0;11.3;82.13
20.0;14.29;96.85
21.0;16.24;113.53
