GRAND_ID: 2033
DAM_NAME: -60.571824
LONG: -60.571824
LAT: 46.552388
Depth(m);Area(km2);Volume(mcm)
0.0;0.0;0.0
1.0;0.15;0.41
2.0;0.52;1.19
3.0;0.8;2.25
4.0;1.37;3.88
5.0;1.73;5.87
6.0;2.5;8.62
7.0;2.99;11.88
8.0;3.63;15.77
9.0;4.0;20.03
10.0;4.5;24.8
11.0;4.76;29.82
12.0;5.06;35.14
13.0;5.2;40.6
14.0;5.38;46.24
