GRAND_ID: 2053
DAM_NAME: -68.782535
LONG: -68.782535
LAT: 45.634125
Depth(m);Area(km2);Volume(mcm)
0.0;0.0;0.0
1.0;1.44;2.7
2.0;4.04;7.99
3.0;7.84;17.08
4.0;14.93;33.26
5.0;19.05;53.56
6.0;28.75;83.57
7.0;35.79;120.61
8.0;42.8;164.66
9.0;46.79;212.7
10.0;52.09;266.04
11.0;55.09;322.38
12.0;60.89;384.53
13.0;64.32;450.1
14.0;69.35;520.7
15.0;73.02;594.98
16.0;77.52;673.76
17.0;80.97;755.98
18.0;84.89;842.12
19.0;87.09;930.47
