GRAND_ID: 2055
DAM_NAME: -73.656701
LONG: -73.656701
LAT: 45.588706
Depth(m);Area(km2);Volume(mcm)
0.0;0.0;0.0
1.0;0.24;0.41
2.0;0.44;1.03
3.0;0.61;1.82
4.0;0.82;2.81
5.0;1.0;3.99
6.0;1.21;5.38
7.0;1.52;7.07
8.0;1.84;9.08
9.0;2.05;11.31
10.0;2.51;14.0
11.0;3.92;18.09
12.0;7.69;25.96
13.0;10.45;36.59
14.0;12.01;48.78
