GRAND_ID: 2060
DAM_NAME: -72.612959
LONG: -72.612959
LAT: 45.420441
Depth(m);Area(km2);Volume(mcm)
0.0;0.0;0.0
1.0;0.2;0.31
2.0;0.46;0.87
3.0;0.76;1.74
4.0;1.07;2.91
5.0;1.34;4.36
6.0;1.7;6.16
7.0;2.12;8.39
8.0;2.56;11.05
9.0;2.83;13.99
10.0;3.16;17.26
11.0;3.41;20.77
12.0;3.73;24.6
13.0;3.95;28.66
14.0;4.22;32.98
15.0;4.42;37.5
