GRAND_ID: 2065
DAM_NAME: -69.117708
LONG: -69.117708
LAT: 45.269746
Depth(m);Area(km2);Volume(mcm)
0.0;0.0;0.0
1.0;0.62;1.13
2.0;1.3;2.94
3.0;2.18;5.63
4.0;3.1;9.25
5.0;4.57;14.32
6.0;8.19;23.03
7.0;12.09;35.64
8.0;14.69;50.84
9.0;17.88;69.23
10.0;20.47;90.21
11.0;22.52;113.25
12.0;23.99;137.76
13.0;25.5;163.76
14.0;26.79;191.07
15.0;27.97;219.55
16.0;28.89;248.96
17.0;29.62;279.1
18.0;30.09;309.7
19.0;30.5;340.71
