GRAND_ID: 2078
DAM_NAME: -74.860417
LONG: -74.860417
LAT: 44.998781
Depth(m);Area(km2);Volume(mcm)
0.0;0.0;0.0
1.0;2.83;4.43
2.0;8.04;14.06
3.0;19.91;35.57
4.0;37.78;74.94
5.0;55.04;131.57
6.0;70.82;203.98
7.0;81.74;287.32
8.0;91.49;380.41
9.0;99.8;481.8
10.0;108.96;592.36
11.0;118.7;712.65
12.0;129.23;843.47
13.0;138.12;983.18
14.0;147.83;1132.6
15.0;156.38;1290.58
