GRAND_ID: 2082
DAM_NAME: -64.041003
LONG: -64.041003
LAT: 44.925993
Depth(m);Area(km2);Volume(mcm)
0.0;0.0;0.0
1.0;0.21;0.34
2.0;0.43;0.91
3.0;0.88;1.93
4.0;1.48;3.55
5.0;2.29;5.97
6.0;3.11;9.22
7.0;4.31;13.67
8.0;5.32;19.12
9.0;6.47;25.73
10.0;7.28;33.14
11.0;8.47;41.75
12.0;9.72;51.61
13.0;11.26;63.0
14.0;12.38;75.52
15.0;13.88;89.53
16.0;15.24;104.91
17.0;17.14;122.19
18.0;18.32;140.64
19.0;19.36;160.14
20.0;20.07;180.35
21.0;20.87;201.36
