GRAND_ID: 2107
DAM_NAME: -65.71791
LONG: -65.71791
LAT: 44.368505
Depth(m);Area(km2);Volume(mcm)
0.0;0.0;0.0
1.0;0.44;0.57
2.0;2.21;2.92
3.0;3.45;6.49
4.0;6.09;12.71
5.0;8.92;21.76
6.0;12.7;34.59
7.0;14.91;49.63
8.0;19.91;69.67
9.0;22.84;92.64
10.0;26.97;119.74
11.0;29.01;148.88
12.0;30.47;179.48
