GRAND_ID: 2100
DAM_NAME: -74.819792
LONG: -74.819792
LAT: 44.515667
Depth(m);Area(km2);Volume(mcm)
0.0;0.0;0.0
1.0;0.03;0.14
2.0;0.06;0.31
3.0;0.1;0.51
4.0;0.16;0.79
5.0;0.3;1.19
6.0;0.37;1.67
7.0;0.54;2.32
8.0;0.67;3.1
9.0;1.24;4.45
10.0;1.76;6.32
11.0;2.23;8.66
12.0;2.38;11.15
13.0;2.6;13.85
14.0;2.68;16.64
