GRAND_ID: 2118
DAM_NAME: -70.210339
LONG: -70.210339
LAT: 44.153322
Depth(m);Area(km2);Volume(mcm)
0.0;0.0;0.0
1.0;0.39;0.7
2.0;0.63;1.64
3.0;0.88;2.83
4.0;1.1;4.24
5.0;1.41;5.96
6.0;1.78;8.06
7.0;2.29;10.66
8.0;2.66;13.63
9.0;3.31;17.25
10.0;3.86;21.42
11.0;4.99;26.72
12.0;6.18;33.21
13.0;7.86;41.38
