GRAND_ID: 2111
DAM_NAME: -69.893624
LONG: -69.893624
LAT: 44.281472
Depth(m);Area(km2);Volume(mcm)
0.0;0.0;0.0
1.0;1.0;1.44
2.0;2.86;4.75
3.0;5.41;10.6
4.0;8.73;19.77
5.0;11.52;31.73
6.0;13.78;45.96
7.0;15.73;62.13
8.0;17.65;80.22
9.0;19.1;99.76
10.0;20.46;120.66
11.0;21.52;142.62
12.0;22.49;165.55
13.0;23.13;189.12
