GRAND_ID: 2124
DAM_NAME: -70.581236
LONG: -70.581236
LAT: 43.943864
Depth(m);Area(km2);Volume(mcm)
0.0;0.0;0.0
1.0;2.01;2.9
2.0;4.84;8.64
3.0;7.69;17.22
4.0;11.09;29.2
5.0;15.17;45.27
6.0;18.24;64.4
7.0;20.63;85.92
8.0;22.73;109.55
9.0;23.99;134.44
10.0;25.03;160.36
11.0;25.55;186.8
12.0;26.08;213.77
