GRAND_ID: 2120
DAM_NAME: -70.22685
LONG: -70.22685
LAT: 44.145353
Depth(m);Area(km2);Volume(mcm)
0.0;0.0;0.0
1.0;0.28;0.51
2.0;0.94;1.68
3.0;1.76;3.67
4.0;2.91;6.81
5.0;3.96;11.0
6.0;5.4;16.62
7.0;6.58;23.44
8.0;7.57;31.23
9.0;8.05;39.51
10.0;8.44;48.17
11.0;8.71;57.11
12.0;8.96;66.31
