GRAND_ID: 2139
DAM_NAME: -71.507283
LONG: -71.507283
LAT: 43.64876
Depth(m);Area(km2);Volume(mcm)
0.0;0.0;0.0
1.0;0.32;0.43
2.0;0.87;1.4
3.0;1.63;3.14
4.0;2.08;5.33
5.0;2.6;8.04
6.0;2.85;11.0
7.0;3.07;14.17
8.0;3.2;17.48
9.0;3.36;20.94
10.0;3.44;24.49
11.0;3.53;28.12
12.0;3.59;31.81
13.0;3.64;35.55
