GRAND_ID: 2134
DAM_NAME: -73.766442
LONG: -73.766442
LAT: 43.665751
Depth(m);Area(km2);Volume(mcm)
0.0;0.0;0.0
1.0;0.15;0.4
2.0;0.25;0.89
3.0;0.46;1.6
4.0;0.63;2.48
5.0;1.03;3.76
6.0;1.54;5.55
7.0;2.72;8.52
8.0;3.77;12.53
9.0;5.51;18.29
10.0;7.29;25.83
11.0;10.17;36.24
12.0;12.77;49.26
13.0;16.87;66.38
