GRAND_ID: 2133
DAM_NAME: -73.739374
LONG: -73.739374
LAT: 43.686797
Depth(m);Area(km2);Volume(mcm)
0.0;0.0;0.0
1.0;0.26;0.37
2.0;0.82;1.31
3.0;1.14;2.56
4.0;1.49;4.16
5.0;1.7;5.97
6.0;2.17;8.26
7.0;2.44;10.81
8.0;2.93;13.85
9.0;3.64;17.6
10.0;4.28;22.0
11.0;4.68;26.78
12.0;5.24;32.13
13.0;5.56;37.8
14.0;5.86;43.77
15.0;6.07;49.95
