GRAND_ID: 2140
DAM_NAME: -71.738564
LONG: -71.738564
LAT: 43.620152
Depth(m);Area(km2);Volume(mcm)
0.0;0.0;0.0
1.0;0.57;0.91
2.0;1.16;2.4
3.0;1.64;4.38
4.0;2.51;7.23
5.0;3.06;10.63
6.0;3.74;14.71
7.0;4.25;19.3
8.0;5.49;25.13
9.0;6.56;32.04
10.0;8.15;40.52
11.0;9.8;50.66
12.0;11.28;62.28
13.0;12.53;75.15
14.0;14.04;89.54
15.0;15.56;105.43
16.0;16.54;122.32
17.0;17.2;139.86
18.0;17.85;158.05
19.0;18.17;176.56
20.0;18.54;195.44
21.0;18.71;214.49
