GRAND_ID: 2153
DAM_NAME: -73.886836
LONG: -73.886836
LAT: 43.296474
Depth(m);Area(km2);Volume(mcm)
0.0;0.0;0.0
1.0;0.02;0.14
2.0;0.05;0.3
3.0;0.09;0.5
4.0;0.12;0.73
5.0;0.17;1.02
6.0;0.25;1.38
7.0;0.37;1.86
8.0;0.43;2.4
9.0;0.55;3.06
10.0;0.63;3.8
11.0;0.74;4.65
12.0;0.83;5.6
13.0;0.98;6.69
14.0;1.15;7.95
15.0;1.37;9.43
16.0;1.5;11.04
17.0;1.63;12.79
18.0;1.69;14.6
19.0;1.76;16.47
