GRAND_ID: 2168
DAM_NAME: -73.583897
LONG: -73.583897
LAT: 42.867651
Depth(m);Area(km2);Volume(mcm)
0.0;0.0;0.0
1.0;0.53;0.82
2.0;1.13;2.25
3.0;1.8;4.34
4.0;2.37;7.0
5.0;2.97;10.26
6.0;3.78;14.33
7.0;4.52;19.14
8.0;4.97;24.41
9.0;5.47;30.18
10.0;5.86;36.33
11.0;6.23;42.85
12.0;6.5;49.65
13.0;6.76;56.7
14.0;6.93;63.92
15.0;7.06;71.27
