GRAND_ID: 2170
DAM_NAME: -73.714946
LONG: -73.714946
LAT: 42.798037
Depth(m);Area(km2);Volume(mcm)
0.0;0.0;0.0
1.0;0.07;0.23
2.0;0.17;0.56
3.0;0.39;1.11
4.0;0.51;1.78
5.0;0.62;2.56
6.0;0.74;3.46
7.0;0.86;4.49
8.0;1.0;5.65
9.0;1.31;7.12
10.0;1.67;8.95
11.0;2.28;11.39
12.0;3.13;14.68
13.0;4.62;19.46
14.0;6.14;25.76
15.0;7.84;33.77
16.0;9.07;43.0
