GRAND_ID: 2188
DAM_NAME: -72.88235
LONG: -72.88235
LAT: 42.26612
Depth(m);Area(km2);Volume(mcm)
0.0;0.0;0.0
1.0;0.02;0.13
2.0;0.07;0.31
3.0;0.11;0.53
4.0;0.15;0.78
5.0;0.2;1.09
6.0;0.28;1.48
7.0;0.35;1.94
8.0;0.45;2.5
9.0;0.53;3.14
10.0;0.66;3.91
11.0;0.71;4.73
12.0;0.77;5.61
13.0;0.8;6.52
14.0;0.83;7.46
15.0;0.85;8.42
16.0;0.89;9.42
17.0;0.91;10.44
18.0;0.92;11.47
19.0;0.93;12.5
