GRAND_ID: 2193
DAM_NAME: -73.019413
LONG: -73.019413
LAT: 41.99076
Depth(m);Area(km2);Volume(mcm)
0.0;0.0;0.0
1.0;0.02;0.14
2.0;0.07;0.33
3.0;0.09;0.54
4.0;0.13;0.79
5.0;0.16;1.07
6.0;0.2;1.38
7.0;0.22;1.72
8.0;0.26;2.1
9.0;0.28;2.5
10.0;0.31;2.93
11.0;0.34;3.38
12.0;0.37;3.88
13.0;0.39;4.39
14.0;0.47;4.97
15.0;0.52;5.61
16.0;0.57;6.3
17.0;0.59;7.01
18.0;0.62;7.75
19.0;0.64;8.51
20.0;0.66;9.29
21.0;0.68;10.09
22.0;0.7;10.91
