GRAND_ID: 2216
DAM_NAME: -72.768184
LONG: -72.768184
LAT: 41.340892
Depth(m);Area(km2);Volume(mcm)
0.0;0.0;0.0
1.0;0.09;0.22
2.0;0.22;0.58
3.0;0.49;1.2
4.0;0.85;2.18
5.0;1.31;3.62
6.0;1.67;5.42
7.0;1.92;7.48
8.0;2.36;9.97
9.0;2.8;12.9
10.0;3.2;16.24
11.0;3.4;19.77
12.0;3.6;23.5
13.0;3.75;27.38
14.0;3.89;31.41
15.0;3.98;35.52
16.0;4.05;39.7
17.0;4.11;43.94
18.0;4.17;48.25
19.0;4.22;52.6
20.0;4.25;56.98
