GRAND_ID: 2210
DAM_NAME: -73.587689
LONG: -73.587689
LAT: 41.400182
Depth(m);Area(km2);Volume(mcm)
0.0;0.0;0.0
1.0;0.1;0.23
2.0;0.2;0.57
3.0;0.33;1.03
4.0;0.45;1.61
5.0;0.52;2.27
6.0;0.63;3.03
7.0;0.72;3.89
8.0;0.84;4.87
9.0;0.95;5.96
10.0;1.2;7.29
11.0;1.36;8.79
12.0;1.55;10.47
13.0;1.67;12.27
14.0;1.82;14.22
15.0;1.91;16.26
16.0;2.0;18.39
17.0;2.05;20.58
