GRAND_ID: 2217
DAM_NAME: -73.646883
LONG: -73.646883
LAT: 41.327035
Depth(m);Area(km2);Volume(mcm)
0.0;0.0;0.0
1.0;0.05;0.15
2.0;0.08;0.33
3.0;0.13;0.56
4.0;0.2;0.86
5.0;0.44;1.4
6.0;0.67;2.17
7.0;0.88;3.15
8.0;1.05;4.31
9.0;1.3;5.71
10.0;1.56;7.37
11.0;1.89;9.36
12.0;2.1;11.57
13.0;2.3;13.97
14.0;2.43;16.51
15.0;2.55;19.16
16.0;2.63;21.89
17.0;2.7;24.69
