GRAND_ID: 2224
DAM_NAME: -74.295638
LONG: -74.295638
LAT: 41.124432
Depth(m);Area(km2);Volume(mcm)
0.0;0.0;0.0
1.0;0.03;0.14
2.0;0.07;0.32
3.0;0.12;0.55
4.0;0.17;0.83
5.0;0.23;1.16
6.0;0.28;1.54
7.0;0.35;2.01
8.0;0.42;2.54
9.0;0.48;3.13
10.0;0.52;3.76
11.0;0.57;4.44
12.0;0.62;5.17
13.0;0.67;5.95
14.0;0.73;6.79
15.0;0.87;7.76
16.0;0.97;8.84
17.0;1.14;10.08
18.0;1.32;11.51
19.0;1.57;13.19
20.0;1.72;15.02
21.0;1.88;17.01
22.0;1.98;19.1
