GRAND_ID: 2228
DAM_NAME: -74.295354
LONG: -74.295354
LAT: 41.045305
Depth(m);Area(km2);Volume(mcm)
0.0;0.0;0.0
1.0;0.43;0.59
2.0;0.97;1.72
3.0;1.53;3.4
4.0;2.14;5.7
5.0;3.84;9.7
6.0;4.95;14.82
7.0;5.81;20.79
8.0;6.4;27.35
9.0;6.96;34.48
10.0;7.44;42.08
11.0;7.93;50.18
12.0;8.33;58.67
13.0;8.74;67.57
14.0;9.03;76.76
15.0;9.26;86.18
16.0;9.45;95.79
17.0;9.62;105.56
