GRAND_ID: 2220
DAM_NAME: -73.348995
LONG: -73.348995
LAT: 41.249171
Depth(m);Area(km2);Volume(mcm)
0.0;0.0;0.0
1.0;0.02;0.14
2.0;0.05;0.31
3.0;0.09;0.52
4.0;0.13;0.77
5.0;0.18;1.07
6.0;0.26;1.46
7.0;0.44;2.01
8.0;0.92;3.05
9.0;1.44;4.61
10.0;1.85;6.58
11.0;2.13;8.83
12.0;2.47;11.42
13.0;2.7;14.24
14.0;2.92;17.28
15.0;3.04;20.44
16.0;3.18;23.75
17.0;3.26;27.13
18.0;3.33;30.58
19.0;3.36;34.06
