GRAND_ID: 2229
DAM_NAME: -74.501569
LONG: -74.501569
LAT: 41.041143
Depth(m);Area(km2);Volume(mcm)
0.0;0.0;0.0
1.0;0.06;0.16
2.0;0.13;0.4
3.0;0.3;0.8
4.0;0.38;1.29
5.0;0.51;1.91
6.0;0.61;2.63
7.0;0.76;3.5
8.0;0.92;4.53
9.0;1.07;5.7
10.0;1.14;6.95
11.0;1.27;8.33
12.0;1.34;9.78
13.0;1.43;11.32
14.0;1.48;12.91
15.0;1.57;14.59
16.0;1.62;16.31
17.0;1.67;18.09
18.0;1.7;19.9
