GRAND_ID: 2233
DAM_NAME: -74.456209
LONG: -74.456209
LAT: 40.964843
Depth(m);Area(km2);Volume(mcm)
0.0;0.0;0.0
1.0;0.09;0.24
2.0;0.28;0.68
3.0;0.46;1.28
4.0;0.76;2.2
5.0;1.0;3.35
6.0;1.28;4.79
7.0;1.46;6.4
8.0;1.64;8.19
9.0;1.75;10.08
10.0;1.9;12.13
11.0;1.99;14.27
12.0;2.07;16.5
13.0;2.14;18.78
