GRAND_ID: 2230
DAM_NAME: -74.424475
LONG: -74.424475
LAT: 41.025418
Depth(m);Area(km2);Volume(mcm)
0.0;0.0;0.0
1.0;0.03;0.15
2.0;0.17;0.45
3.0;0.3;0.88
4.0;0.5;1.49
5.0;0.59;2.21
6.0;0.74;3.07
7.0;0.84;4.04
8.0;0.95;5.12
9.0;1.04;6.28
10.0;1.12;7.52
11.0;1.18;8.82
12.0;1.24;10.18
