GRAND_ID: 2243
DAM_NAME: -71.08119
LONG: -71.08119
LAT: 19.464198
Depth(m);Area(km2);Volume(mcm)
0.0;0.0;0.0
1.0;0.06;0.2
2.0;0.12;0.47
3.0;0.17;0.78
4.0;0.23;1.14
5.0;0.27;1.55
6.0;0.35;2.03
7.0;0.4;2.58
8.0;0.51;3.23
9.0;0.62;3.99
10.0;0.72;4.84
11.0;0.81;5.79
12.0;0.9;6.83
