GRAND_ID: 2252
DAM_NAME: -66.922033
LONG: -66.922033
LAT: 18.393849
Depth(m);Area(km2);Volume(mcm)
0.0;0.0;0.0
1.0;0.02;0.15
2.0;0.07;0.35
3.0;0.1;0.59
4.0;0.17;0.89
5.0;0.22;1.24
6.0;0.43;1.8
7.0;0.77;2.71
8.0;1.2;4.04
9.0;1.42;5.6
10.0;1.73;7.45
11.0;1.96;9.55
12.0;2.35;12.03
13.0;2.56;14.72
14.0;2.81;17.67
15.0;2.97;20.77
