GRAND_ID: 2254
DAM_NAME: -66.234846
LONG: -66.234846
LAT: 18.342362
Depth(m);Area(km2);Volume(mcm)
0.0;0.0;0.0
1.0;0.07;0.24
2.0;0.14;0.54
3.0;0.22;0.93
4.0;0.29;1.39
5.0;0.35;1.9
6.0;0.42;2.49
7.0;0.51;3.16
8.0;0.59;3.92
9.0;0.68;4.76
10.0;0.78;5.7
11.0;0.85;6.72
12.0;0.92;7.8
13.0;0.98;8.95
14.0;1.04;10.15
15.0;1.08;11.4
16.0;1.13;12.69
17.0;1.16;14.01
18.0;1.19;15.36
