GRAND_ID: 2261
DAM_NAME: -69.643732
LONG: -69.643732
LAT: 11.343597
Depth(m);Area(km2);Volume(mcm)
0.0;0.0;0.0
1.0;0.7;1.09
2.0;2.15;3.62
3.0;4.5;8.5
4.0;6.51;15.4
5.0;8.28;24.06
6.0;9.62;34.06
7.0;10.7;45.14
8.0;11.49;57.02
9.0;12.39;69.79
10.0;13.17;83.34
11.0;13.84;97.56
12.0;14.33;112.27
13.0;14.77;127.43
14.0;15.15;142.96
15.0;15.5;158.84
