GRAND_ID: 2262
DAM_NAME: -72.231391
LONG: -72.231391
LAT: 10.938606
Depth(m);Area(km2);Volume(mcm)
0.0;0.0;0.0
1.0;0.68;1.0
2.0;2.31;3.62
3.0;4.05;7.99
4.0;5.84;14.15
5.0;7.64;22.11
6.0;9.23;31.66
7.0;10.62;42.6
8.0;11.74;54.65
9.0;12.9;67.86
10.0;14.02;82.2
11.0;15.2;97.72
12.0;16.29;114.33
13.0;17.39;132.03
14.0;18.32;150.67
15.0;19.12;170.11
16.0;19.8;190.23
17.0;20.45;211.0
18.0;20.94;232.25
19.0;21.32;253.89
20.0;21.66;275.86
