GRAND_ID: 2269
DAM_NAME: -68.7992
LONG: -68.7992
LAT: 10.176151
Depth(m);Area(km2);Volume(mcm)
0.0;0.0;0.0
1.0;0.09;0.23
2.0;0.43;0.8
3.0;0.8;1.74
4.0;1.79;3.67
5.0;2.68;6.5
6.0;4.12;10.76
7.0;4.84;15.74
8.0;5.45;21.33
9.0;5.79;27.26
10.0;6.07;33.47
11.0;6.21;39.82
12.0;6.33;46.29
