GRAND_ID: 2267
DAM_NAME: -71.03508
LONG: -71.03508
LAT: 10.181669
Depth(m);Area(km2);Volume(mcm)
0.0;0.0;0.0
1.0;0.41;0.61
2.0;1.01;1.83
3.0;1.76;3.79
4.0;2.57;6.57
5.0;3.61;10.38
6.0;4.72;15.3
7.0;5.51;21.02
8.0;6.18;27.4
9.0;6.69;34.29
10.0;7.17;41.67
11.0;7.53;49.4
12.0;7.86;57.47
13.0;8.09;65.77
14.0;8.3;74.27
15.0;8.42;82.9
