GRAND_ID: 2287
DAM_NAME: -67.404536
LONG: -67.404536
LAT: 8.953009
Depth(m);Area(km2);Volume(mcm)
0.0;0.0;0.0
1.0;0.4;0.53
2.0;1.08;1.74
3.0;2.07;3.94
4.0;4.2;8.27
5.0;8.21;16.61
6.0;15.25;31.99
7.0;51.51;83.63
8.0;100.06;183.81
9.0;123.24;307.19
10.0;146.31;453.63
11.0;168.9;622.66
12.0;183.49;806.27
13.0;195.88;1002.28
14.0;205.41;1207.82
15.0;212.99;1420.94
16.0;219.87;1640.94
17.0;224.42;1865.49
18.0;227.42;2093.04
