GRAND_ID: 2285
DAM_NAME: -65.578125
LONG: -65.578125
LAT: 9.196372
Depth(m);Area(km2);Volume(mcm)
0.0;0.0;0.0
1.0;0.8;0.97
2.0;1.78;2.91
3.0;2.61;5.68
4.0;4.49;10.33
5.0;7.09;17.58
6.0;11.08;28.82
7.0;16.42;45.4
8.0;23.49;69.05
9.0;30.68;99.89
10.0;35.87;135.92
11.0;39.29;175.37
12.0;42.5;218.04
13.0;44.51;262.71
14.0;46.07;308.93
15.0;46.97;356.07
16.0;47.66;403.89
