GRAND_ID: 2309
DAM_NAME: -64.728125
LONG: -64.728125
LAT: -21.60071
Depth(m);Area(km2);Volume(mcm)
0.0;0.0;0.0
1.0;0.07;0.2
2.0;0.17;0.5
3.0;0.35;0.98
4.0;0.65;1.76
5.0;0.99;2.87
6.0;1.39;4.39
7.0;1.89;6.4
8.0;2.35;8.89
9.0;2.77;11.79
10.0;3.12;15.04
11.0;3.45;18.62
12.0;3.81;22.57
13.0;4.17;26.87
14.0;4.42;31.42
15.0;4.64;36.19
16.0;4.84;41.16
17.0;5.04;46.32
18.0;5.17;51.62
19.0;5.29;57.04
20.0;5.39;62.56
