GRAND_ID: 2589
DAM_NAME: -5.345246
LONG: -5.345246
LAT: 56.081637
Depth(m);Area(km2);Volume(mcm)
0.0;0.0;0.0
1.0;0.08;0.24
2.0;0.21;0.62
3.0;0.39;1.17
4.0;0.56;1.89
5.0;0.67;2.72
6.0;0.84;3.73
7.0;0.94;4.83
8.0;1.03;6.02
9.0;1.1;7.28
10.0;1.18;8.62
11.0;1.24;10.02
12.0;1.3;11.49
13.0;1.35;13.01
14.0;1.42;14.59
15.0;1.46;16.21
16.0;1.51;17.88
17.0;1.53;19.58
18.0;1.57;21.31
