GRAND_ID: 2585
DAM_NAME: -4.65179
LONG: -4.65179
LAT: 56.248026
Depth(m);Area(km2);Volume(mcm)
0.0;0.0;0.0
1.0;0.15;0.29
2.0;0.26;0.68
3.0;0.46;1.27
4.0;0.64;2.05
5.0;0.83;3.01
6.0;0.95;4.1
7.0;1.19;5.43
8.0;1.34;6.9
9.0;1.48;8.52
10.0;1.61;10.26
11.0;1.77;12.17
12.0;1.88;14.18
13.0;2.02;16.34
14.0;2.09;18.57
15.0;2.17;20.87
16.0;2.21;23.21
17.0;2.24;25.59
18.0;2.26;27.98
