GRAND_ID: 2594
DAM_NAME: -3.57999
LONG: -3.57999
LAT: 55.486073
Depth(m);Area(km2);Volume(mcm)
0.0;0.0;0.0
1.0;0.01;0.12
2.0;0.02;0.24
3.0;0.04;0.38
4.0;0.05;0.54
5.0;0.09;0.73
6.0;0.12;0.95
7.0;0.16;1.22
8.0;0.19;1.51
9.0;0.24;1.85
10.0;0.27;2.22
11.0;0.32;2.64
12.0;0.38;3.12
13.0;0.44;3.66
14.0;0.49;4.26
15.0;0.57;4.92
16.0;0.6;5.63
17.0;0.65;6.38
18.0;0.67;7.16
