GRAND_ID: 2601
DAM_NAME: -2.290119
LONG: -2.290119
LAT: 54.657453
Depth(m);Area(km2);Volume(mcm)
0.0;0.0;0.0
1.0;0.07;0.26
2.0;0.18;0.63
3.0;0.25;1.07
4.0;0.4;1.66
5.0;0.52;2.38
6.0;0.79;3.36
7.0;0.97;4.51
8.0;1.3;6.0
9.0;1.5;7.69
10.0;1.75;9.63
11.0;1.86;11.68
12.0;2.04;13.91
13.0;2.13;16.22
14.0;2.3;18.71
15.0;2.4;21.3
16.0;2.55;24.04
17.0;2.64;26.87
18.0;2.8;29.87
19.0;2.87;32.93
