GRAND_ID: 2624
DAM_NAME: -0.607705
LONG: -0.607705
LAT: 52.659217
Depth(m);Area(km2);Volume(mcm)
0.0;0.0;0.0
1.0;0.2;0.48
2.0;0.48;1.23
3.0;0.75;2.26
4.0;1.13;3.67
5.0;1.47;5.41
6.0;1.98;7.67
7.0;2.52;10.46
8.0;3.11;13.85
9.0;3.83;17.95
10.0;4.85;23.08
11.0;5.8;29.15
12.0;6.71;36.14
13.0;7.54;43.96
14.0;8.63;52.87
15.0;9.52;62.66
16.0;10.54;73.48
17.0;11.44;85.2
18.0;12.1;97.57
