GRAND_ID: 2636
DAM_NAME: -3.302083
LONG: -3.302083
LAT: 51.875338
Depth(m);Area(km2);Volume(mcm)
0.0;0.0;0.0
1.0;0.06;0.22
2.0;0.11;0.48
3.0;0.16;0.79
4.0;0.22;1.17
5.0;0.28;1.59
6.0;0.34;2.09
7.0;0.4;2.64
8.0;0.46;3.25
9.0;0.54;3.95
10.0;0.6;4.7
11.0;0.69;5.54
12.0;0.78;6.46
13.0;0.91;7.52
14.0;0.95;8.62
15.0;1.0;9.77
16.0;1.03;10.95
17.0;1.07;12.17
18.0;1.09;13.41
19.0;1.11;14.67
