GRAND_ID: 2639
DAM_NAME: -4.235247
LONG: -4.235247
LAT: 50.689914
Depth(m);Area(km2);Volume(mcm)
0.0;0.0;0.0
1.0;0.09;0.2
2.0;0.15;0.45
3.0;0.22;0.78
4.0;0.29;1.18
5.0;0.37;1.66
6.0;0.46;2.22
7.0;0.57;2.9
8.0;0.67;3.67
9.0;0.81;4.59
10.0;0.92;5.62
11.0;1.05;6.78
12.0;1.18;8.06
13.0;1.33;9.49
14.0;1.47;11.07
15.0;1.63;12.81
16.0;1.78;14.7
17.0;1.92;16.73
18.0;2.04;18.88
19.0;2.19;21.17
20.0;2.31;23.59
21.0;2.46;26.17
