GRAND_ID: 2671
DAM_NAME: -4.528978
LONG: -4.528978
LAT: 42.866528
Depth(m);Area(km2);Volume(mcm)
0.0;0.0;0.0
1.0;0.04;0.17
2.0;0.09;0.39
3.0;0.14;0.67
4.0;0.22;1.03
5.0;0.27;1.43
6.0;0.33;1.89
7.0;0.35;2.37
8.0;0.41;2.92
9.0;0.45;3.5
10.0;0.48;4.12
11.0;0.5;4.76
12.0;0.52;5.41
13.0;0.53;6.08
