GRAND_ID: 2672
DAM_NAME: -8.796254
LONG: -8.796254
LAT: 42.865541
Depth(m);Area(km2);Volume(mcm)
0.0;0.0;0.0
1.0;0.02;0.14
2.0;0.03;0.29
3.0;0.05;0.46
4.0;0.07;0.65
5.0;0.09;0.86
6.0;0.11;1.09
7.0;0.13;1.34
8.0;0.16;1.63
9.0;0.21;1.96
10.0;0.29;2.37
11.0;0.34;2.83
12.0;0.44;3.38
13.0;0.5;4.0
14.0;0.55;4.67
15.0;0.6;5.39
