GRAND_ID: 2694
DAM_NAME: -8.114583
LONG: -8.114583
LAT: 42.294261
Depth(m);Area(km2);Volume(mcm)
0.0;0.0;0.0
1.0;0.11;0.25
2.0;0.4;0.79
3.0;0.67;1.6
4.0;1.06;2.8
5.0;1.25;4.19
6.0;1.54;5.86
7.0;1.72;7.72
8.0;1.92;9.79
9.0;2.08;12.01
10.0;2.27;14.42
11.0;2.41;16.97
12.0;2.59;19.7
13.0;2.75;22.59
14.0;2.92;25.65
15.0;3.04;28.83
16.0;3.21;32.18
17.0;3.31;35.64
18.0;3.44;39.21
19.0;3.52;42.88
