GRAND_ID: 2776
DAM_NAME: -8.246639
LONG: -8.246639
LAT: 40.310312
Depth(m);Area(km2);Volume(mcm)
0.0;0.0;0.0
1.0;0.04;0.17
2.0;0.08;0.38
3.0;0.15;0.66
4.0;0.21;1.0
5.0;0.28;1.41
6.0;0.49;2.02
7.0;0.65;2.8
8.0;0.82;3.74
9.0;0.93;4.8
10.0;1.04;5.97
11.0;1.14;7.24
12.0;1.22;8.58
13.0;1.3;10.02
14.0;1.39;11.53
15.0;1.44;13.11
16.0;1.51;14.74
17.0;1.54;16.41
