GRAND_ID: 2788
DAM_NAME: -0.160542
LONG: -0.160542
LAT: 40.030957
Depth(m);Area(km2);Volume(mcm)
0.0;0.0;0.0
1.0;0.03;0.14
2.0;0.07;0.32
3.0;0.11;0.55
4.0;0.16;0.83
5.0;0.2;1.15
6.0;0.25;1.51
7.0;0.3;1.93
8.0;0.35;2.39
9.0;0.38;2.89
10.0;0.43;3.43
11.0;0.46;4.0
12.0;0.5;4.61
13.0;0.52;5.24
14.0;0.53;5.89
15.0;0.55;6.55
16.0;0.56;7.23
17.0;0.57;7.91
18.0;0.57;8.6
19.0;0.58;9.29
20.0;0.59;10.0
21.0;0.59;10.7
