GRAND_ID: 2787
DAM_NAME: -5.140625
LONG: -5.140625
LAT: 40.046967
Depth(m);Area(km2);Volume(mcm)
0.0;0.0;0.0
1.0;0.35;0.47
2.0;0.62;1.22
3.0;1.03;2.37
4.0;1.3;3.79
5.0;1.88;5.79
6.0;2.25;8.16
7.0;2.9;11.19
8.0;3.36;14.67
9.0;4.14;18.93
10.0;4.57;23.62
11.0;5.32;29.07
12.0;5.76;34.95
13.0;6.41;41.48
14.0;6.72;48.32
15.0;7.14;55.58
