GRAND_ID: 2792
DAM_NAME: -8.217503
LONG: -8.217503
LAT: 39.851383
Depth(m);Area(km2);Volume(mcm)
0.0;0.0;0.0
1.0;0.04;0.17
2.0;0.12;0.42
3.0;0.19;0.74
4.0;0.3;1.17
5.0;0.42;1.72
6.0;0.58;2.43
7.0;0.68;3.25
8.0;0.89;4.27
9.0;1.06;5.46
10.0;1.26;6.85
11.0;1.4;8.38
12.0;1.53;10.04
13.0;1.65;11.82
14.0;1.75;13.7
15.0;1.82;15.65
16.0;1.91;17.69
