GRAND_ID: 2790
DAM_NAME: -7.197161
LONG: -7.197161
LAT: 39.94865
Depth(m);Area(km2);Volume(mcm)
0.0;0.0;0.0
1.0;0.07;0.23
2.0;0.25;0.65
3.0;0.4;1.22
4.0;0.73;2.11
5.0;1.08;3.36
6.0;1.95;5.47
7.0;2.85;8.49
8.0;3.75;12.41
9.0;3.98;16.55
10.0;4.18;20.9
11.0;4.26;25.32
12.0;4.39;29.87
13.0;4.42;34.46
