GRAND_ID: 2831
DAM_NAME: -0.477083
LONG: -0.477083
LAT: 38.938435
Depth(m);Area(km2);Volume(mcm)
0.0;0.0;0.0
1.0;0.06;0.21
2.0;0.12;0.48
3.0;0.22;0.85
4.0;0.33;1.33
5.0;0.61;2.08
6.0;0.8;3.03
7.0;1.13;4.3
8.0;1.28;5.73
9.0;1.56;7.43
10.0;1.79;9.37
11.0;2.03;11.55
12.0;2.22;13.91
