GRAND_ID: 2847
DAM_NAME: -8.391994
LONG: -8.391994
LAT: 38.419664
Depth(m);Area(km2);Volume(mcm)
0.0;0.0;0.0
1.0;0.1;0.27
2.0;0.27;0.71
3.0;0.52;1.4
4.0;0.79;2.36
5.0;1.04;3.57
6.0;1.26;5.0
7.0;1.44;6.61
8.0;1.64;8.42
9.0;1.88;10.47
10.0;2.2;12.83
11.0;2.59;15.59
12.0;3.09;18.86
13.0;3.74;22.76
14.0;5.16;28.08
15.0;6.92;35.17
16.0;8.35;43.69
