GRAND_ID: 2842
DAM_NAME: -0.265281
LONG: -0.265281
LAT: 38.535726
Depth(m);Area(km2);Volume(mcm)
0.0;0.0;0.0
1.0;0.04;0.16
2.0;0.08;0.35
3.0;0.1;0.57
4.0;0.12;0.81
5.0;0.15;1.08
6.0;0.17;1.37
7.0;0.19;1.68
8.0;0.2;2.0
9.0;0.22;2.34
10.0;0.23;2.69
11.0;0.25;3.06
12.0;0.27;3.45
13.0;0.28;3.84
14.0;0.28;4.24
15.0;0.29;4.65
16.0;0.29;5.07
17.0;0.3;5.48
18.0;0.3;5.9
19.0;0.3;6.32
20.0;0.3;6.74
