GRAND_ID: 2880
DAM_NAME: -5.348958
LONG: -5.348958
LAT: 37.844229
Depth(m);Area(km2);Volume(mcm)
0.0;0.0;0.0
1.0;0.15;0.26
2.0;0.38;0.74
3.0;0.65;1.5
4.0;1.16;2.77
5.0;1.51;4.38
6.0;2.01;6.49
7.0;2.27;8.87
8.0;2.68;11.66
9.0;2.96;14.72
10.0;3.47;18.29
11.0;3.8;22.2
12.0;4.19;26.5
13.0;4.38;30.99
14.0;4.6;35.69
15.0;4.67;40.46
16.0;4.75;45.32
17.0;4.78;50.21
18.0;4.82;55.13
