GRAND_ID: 2881
DAM_NAME: -8.620163
LONG: -8.620163
LAT: 37.843772
Depth(m);Area(km2);Volume(mcm)
0.0;0.0;0.0
1.0;0.17;0.32
2.0;0.38;0.86
3.0;0.69;1.71
4.0;1.08;2.95
5.0;1.33;4.44
6.0;1.56;6.15
7.0;1.68;7.99
8.0;1.83;9.98
9.0;1.9;12.04
10.0;1.98;14.18
11.0;2.04;16.38
12.0;2.08;18.62
