GRAND_ID: 2903
DAM_NAME: -7.511719
LONG: -7.511719
LAT: 37.277083
Depth(m);Area(km2);Volume(mcm)
0.0;0.0;0.0
1.0;0.05;0.18
2.0;0.12;0.42
3.0;0.17;0.72
4.0;0.23;1.08
5.0;0.29;1.5
6.0;0.37;1.99
7.0;0.45;2.57
8.0;0.56;3.26
9.0;0.66;4.05
10.0;0.76;4.93
11.0;0.85;5.9
12.0;0.95;6.98
13.0;1.07;8.18
14.0;1.24;9.55
15.0;1.43;11.1
16.0;1.62;12.84
17.0;1.78;14.75
18.0;1.94;16.81
19.0;2.05;18.98
20.0;2.12;21.23
