GRAND_ID: 2907
DAM_NAME: -8.699186
LONG: -8.699186
LAT: 37.203314
Depth(m);Area(km2);Volume(mcm)
0.0;0.0;0.0
1.0;0.03;0.14
2.0;0.19;0.43
3.0;0.31;0.85
4.0;0.47;1.42
5.0;0.64;2.16
6.0;0.86;3.12
7.0;1.08;4.31
8.0;1.29;5.7
9.0;1.49;7.3
10.0;1.73;9.13
11.0;1.92;11.15
12.0;2.11;13.37
13.0;2.22;15.7
14.0;2.3;18.1
15.0;2.36;20.56
16.0;2.41;23.08
17.0;2.45;25.63
