GRAND_ID: 2926
DAM_NAME: -5.774006
LONG: -5.774006
LAT: 36.30252
Depth(m);Area(km2);Volume(mcm)
0.0;0.0;0.0
1.0;0.13;0.24
2.0;0.37;0.72
3.0;0.72;1.54
4.0;1.15;2.8
5.0;1.7;4.61
6.0;2.29;7.0
7.0;2.64;9.75
8.0;2.92;12.78
9.0;3.13;16.01
10.0;3.28;19.4
11.0;3.38;22.89
12.0;3.47;26.47
13.0;3.53;30.1
14.0;3.57;33.78
15.0;3.6;37.48
16.0;3.62;41.2
17.0;3.63;44.94
