GRAND_ID: 2932
DAM_NAME: -0.255863
LONG: -0.255863
LAT: 35.401272
Depth(m);Area(km2);Volume(mcm)
0.0;0.0;0.0
1.0;0.03;0.14
2.0;0.06;0.3
3.0;0.11;0.52
4.0;0.13;0.75
5.0;0.18;1.04
6.0;0.21;1.35
7.0;0.26;1.71
8.0;0.35;2.16
9.0;0.52;2.79
10.0;0.74;3.63
11.0;0.97;4.7
12.0;1.09;5.9
13.0;1.26;7.26
14.0;1.34;8.71
15.0;1.43;10.24
16.0;1.48;11.83
17.0;1.54;13.47
18.0;1.57;15.14
19.0;1.61;16.86
20.0;1.63;18.59
21.0;1.65;20.35
22.0;1.66;22.12
