GRAND_ID: 3045
DAM_NAME: -5.082625
LONG: -5.082625
LAT: 6.231427
Depth(m);Area(km2);Volume(mcm)
0.0;0.0;0.0
1.0;0.19;0.37
2.0;2.68;3.22
3.0;6.66;10.06
4.0;10.09;20.32
5.0;14.33;34.83
6.0;17.93;52.94
7.0;20.34;73.46
8.0;22.28;95.92
9.0;23.6;119.7
10.0;24.93;144.81
11.0;26.03;171.01
12.0;27.4;198.58
13.0;28.37;227.13
14.0;29.45;256.76
15.0;30.15;287.09
16.0;30.9;318.16
17.0;31.43;349.77
