GRAND_ID: 3048
DAM_NAME: -3.160768
LONG: -3.160768
LAT: 5.582583
Depth(m);Area(km2);Volume(mcm)
0.0;0.0;0.0
1.0;0.05;0.17
2.0;0.08;0.37
3.0;0.11;0.6
4.0;0.14;0.86
5.0;0.16;1.14
6.0;0.19;1.46
7.0;0.23;1.81
8.0;0.26;2.19
9.0;0.3;2.61
10.0;0.34;3.07
11.0;0.41;3.61
12.0;0.52;4.25
13.0;0.56;4.93
