GRAND_ID: 3130
DAM_NAME: 10.912731
LONG: 10.912731
LAT: 59.90223
Depth(m);Area(km2);Volume(mcm)
0.0;0.0;0.0
1.0;0.19;0.38
2.0;0.43;1.0
3.0;0.53;1.72
4.0;0.66;2.56
5.0;0.75;3.5
6.0;0.9;4.58
7.0;1.01;5.78
8.0;1.15;7.12
9.0;1.25;8.56
10.0;1.39;10.13
11.0;1.47;11.79
12.0;1.58;13.55
