GRAND_ID: 3218
DAM_NAME: 0.397746
LONG: 0.397746
LAT: 51.076539
Depth(m);Area(km2);Volume(mcm)
0.0;0.0;0.0
1.0;0.05;0.19
2.0;0.12;0.44
3.0;0.25;0.82
4.0;0.43;1.38
5.0;0.62;2.13
6.0;0.78;3.04
7.0;0.92;4.09
8.0;1.06;5.28
9.0;1.21;6.62
10.0;1.36;8.11
11.0;1.54;9.79
12.0;1.73;11.65
13.0;2.05;13.82
14.0;2.29;16.25
15.0;2.53;18.91
16.0;2.69;21.73
