GRAND_ID: 3275
DAM_NAME: 6.922125
LONG: 6.922125
LAT: 48.457077
Depth(m);Area(km2);Volume(mcm)
0.0;0.0;0.0
1.0;0.04;0.18
2.0;0.1;0.43
3.0;0.15;0.73
4.0;0.28;1.15
5.0;0.41;1.7
6.0;0.63;2.48
7.0;0.75;3.37
8.0;0.96;4.48
9.0;1.13;5.76
10.0;1.45;7.35
11.0;1.65;9.15
12.0;1.92;11.22
13.0;2.07;13.43
14.0;2.3;15.88
15.0;2.4;18.42
16.0;2.53;21.1
17.0;2.6;23.84
18.0;2.7;26.69
