GRAND_ID: 3441
DAM_NAME: 2.315823
LONG: 2.315823
LAT: 44.031608
Depth(m);Area(km2);Volume(mcm)
0.0;0.0;0.0
1.0;0.01;0.12
2.0;0.03;0.25
3.0;0.05;0.41
4.0;0.08;0.59
5.0;0.09;0.78
6.0;0.11;1.0
7.0;0.13;1.23
8.0;0.15;1.49
9.0;0.18;1.77
10.0;0.21;2.09
11.0;0.23;2.43
12.0;0.26;2.79
13.0;0.28;3.18
14.0;0.32;3.61
15.0;0.34;4.05
16.0;0.37;4.52
