GRAND_ID: 3457
DAM_NAME: 5.536948
LONG: 5.536948
LAT: 43.540778
Depth(m);Area(km2);Volume(mcm)
0.0;0.0;0.0
1.0;0.01;0.13
2.0;0.04;0.29
3.0;0.05;0.45
4.0;0.08;0.65
5.0;0.09;0.86
6.0;0.11;1.08
7.0;0.13;1.33
8.0;0.15;1.6
9.0;0.17;1.88
10.0;0.19;2.2
11.0;0.21;2.53
12.0;0.25;2.9
13.0;0.28;3.29
14.0;0.34;3.74
15.0;0.38;4.24
16.0;0.43;4.78
17.0;0.46;5.36
18.0;0.49;5.97
19.0;0.51;6.6
20.0;0.54;7.25
21.0;0.54;7.91
22.0;0.57;8.59
23.0;0.57;9.28
