GRAND_ID: 3460
DAM_NAME: 0.636458
LONG: 0.636458
LAT: 43.388541
Depth(m);Area(km2);Volume(mcm)
0.0;0.0;0.0
1.0;0.07;0.19
2.0;0.13;0.43
3.0;0.23;0.78
4.0;0.33;1.22
5.0;0.46;1.8
6.0;0.58;2.5
7.0;0.75;3.37
8.0;0.92;4.4
9.0;1.2;5.72
10.0;1.27;7.11
11.0;1.34;8.57
12.0;1.39;10.07
13.0;1.42;11.61
14.0;1.45;13.17
15.0;1.47;14.76
16.0;1.48;16.35
