GRAND_ID: 3500
DAM_NAME: 0.836575
LONG: 0.836575
LAT: 41.85649
Depth(m);Area(km2);Volume(mcm)
0.0;0.0;0.0
1.0;0.06;0.2
2.0;0.14;0.49
3.0;0.21;0.85
4.0;0.28;1.27
5.0;0.34;1.76
6.0;0.43;2.33
7.0;0.5;2.97
8.0;0.58;3.69
9.0;0.64;4.48
10.0;0.7;5.32
11.0;0.74;6.2
12.0;0.79;7.14
13.0;0.81;8.09
