GRAND_ID: 3512
DAM_NAME: 9.60625
LONG: 9.60625
LAT: 40.635417
Depth(m);Area(km2);Volume(mcm)
0.0;0.0;0.0
1.0;0.11;0.28
2.0;0.23;0.69
3.0;0.33;1.2
4.0;0.48;1.86
5.0;0.6;2.63
6.0;0.86;3.67
7.0;0.99;4.84
8.0;1.2;6.21
9.0;1.3;7.69
10.0;1.53;9.4
11.0;1.69;11.27
12.0;1.93;13.38
13.0;2.04;15.59
14.0;2.16;17.93
