GRAND_ID: 3532
DAM_NAME: 13.098033
LONG: 13.098033
LAT: 37.789575
Depth(m);Area(km2);Volume(mcm)
0.0;0.0;0.0
1.0;0.27;0.47
2.0;0.42;1.08
3.0;0.64;1.92
4.0;0.79;2.9
5.0;1.02;4.12
6.0;1.18;5.49
7.0;1.39;7.07
8.0;1.64;8.91
9.0;2.02;11.13
10.0;2.22;13.54
11.0;2.45;16.19
12.0;2.62;19.01
13.0;2.83;22.03
14.0;2.95;25.17
15.0;3.09;28.46
16.0;3.17;31.83
17.0;3.26;35.29
18.0;3.3;38.79
19.0;3.35;42.33
20.0;3.37;45.89
