GRAND_ID: 3536
DAM_NAME: 13.065143
LONG: 13.065143
LAT: 37.627841
Depth(m);Area(km2);Volume(mcm)
0.0;0.0;0.0
1.0;0.08;0.27
2.0;0.2;0.66
3.0;0.31;1.15
4.0;0.44;1.78
5.0;0.52;2.49
6.0;0.63;3.3
7.0;0.74;4.23
8.0;0.92;5.33
9.0;1.03;6.54
10.0;1.19;7.92
11.0;1.34;9.45
12.0;1.55;11.19
13.0;1.67;13.05
14.0;1.82;15.06
15.0;1.87;17.12
16.0;1.9;19.21
17.0;1.91;21.31
