GRAND_ID: 3530
DAM_NAME: 12.717911
LONG: 12.717911
LAT: 37.885672
Depth(m);Area(km2);Volume(mcm)
0.0;0.0;0.0
1.0;0.14;0.34
2.0;0.26;0.8
3.0;0.33;1.33
4.0;0.43;1.96
5.0;0.51;2.67
6.0;0.59;3.46
7.0;0.64;4.3
8.0;0.73;5.23
9.0;0.78;6.21
10.0;0.84;7.25
11.0;0.89;8.34
12.0;0.93;9.46
13.0;0.94;10.61
