GRAND_ID: 3540
DAM_NAME: 14.28709
LONG: 14.28709
LAT: 37.191136
Depth(m);Area(km2);Volume(mcm)
0.0;0.0;0.0
1.0;0.03;0.16
2.0;0.08;0.36
3.0;0.11;0.6
4.0;0.14;0.87
5.0;0.17;1.17
6.0;0.22;1.51
7.0;0.24;1.88
8.0;0.29;2.3
9.0;0.34;2.76
10.0;0.4;3.29
11.0;0.44;3.87
12.0;0.5;4.5
13.0;0.54;5.16
14.0;0.59;5.88
15.0;0.63;6.64
16.0;0.68;7.45
17.0;0.71;8.29
18.0;0.74;9.16
19.0;0.75;10.04
