GRAND_ID: 3543
DAM_NAME: 9.545999
LONG: 9.545999
LAT: 37.058462
Depth(m);Area(km2);Volume(mcm)
0.0;0.0;0.0
1.0;0.05;0.2
2.0;0.09;0.44
3.0;0.16;0.75
4.0;0.21;1.11
5.0;0.29;1.55
6.0;0.32;2.03
7.0;0.37;2.55
8.0;0.41;3.11
9.0;0.46;3.72
10.0;0.5;4.37
11.0;0.56;5.09
12.0;0.6;5.84
13.0;0.67;6.66
14.0;0.72;7.53
15.0;0.78;8.47
16.0;0.83;9.45
17.0;0.9;10.51
18.0;0.93;11.59
19.0;0.95;12.7
