GRAND_ID: 3549
DAM_NAME: 10.028436
LONG: 10.028436
LAT: 36.774619
Depth(m);Area(km2);Volume(mcm)
0.0;0.0;0.0
1.0;0.23;0.34
2.0;0.58;1.03
3.0;0.84;1.98
4.0;0.94;3.04
5.0;1.03;4.17
6.0;1.11;5.39
7.0;1.17;6.67
8.0;1.23;8.0
9.0;1.29;9.4
10.0;1.33;10.84
11.0;1.38;12.32
12.0;1.39;13.82
