GRAND_ID: 3576
DAM_NAME: 2.099316
LONG: 2.099316
LAT: 36.192385
Depth(m);Area(km2);Volume(mcm)
0.0;0.0;0.0
1.0;0.14;0.42
2.0;0.41;1.1
3.0;0.57;1.95
4.0;0.74;2.96
5.0;0.82;4.06
6.0;0.95;5.29
7.0;1.02;6.59
8.0;1.11;7.97
9.0;1.15;9.4
10.0;1.2;10.88
11.0;1.22;12.38
12.0;1.25;13.9
