GRAND_ID: 3606
DAM_NAME: 6.185522
LONG: 6.185522
LAT: 12.510197
Depth(m);Area(km2);Volume(mcm)
0.0;0.0;0.0
1.0;0.32;0.45
2.0;1.3;1.89
3.0;2.17;4.19
4.0;3.27;7.59
5.0;3.84;11.57
6.0;4.85;16.55
7.0;5.51;22.2
8.0;6.79;29.12
9.0;7.63;36.88
10.0;10.96;47.98
11.0;12.79;60.9
12.0;15.6;76.63
13.0;17.18;93.95
14.0;20.64;114.72
15.0;24.93;139.78
16.0;33.3;173.21
17.0;38.27;211.62
18.0;43.66;255.41
19.0;46.2;301.75
20.0;49.18;351.06
