GRAND_ID: 3645
DAM_NAME: 9.410417
LONG: 9.410417
LAT: 9.310519
Depth(m);Area(km2);Volume(mcm)
0.0;0.0;0.0
1.0;0.06;0.18
2.0;0.15;0.44
3.0;0.22;0.78
4.0;0.26;1.16
5.0;0.3;1.57
6.0;0.33;2.01
7.0;0.36;2.49
8.0;0.39;2.99
9.0;0.41;3.52
10.0;0.43;4.06
11.0;0.45;4.63
12.0;0.47;5.21
13.0;0.49;5.81
