GRAND_ID: 3664
DAM_NAME: 3.255625
LONG: 3.255625
LAT: 7.26127
Depth(m);Area(km2);Volume(mcm)
0.0;0.0;0.0
1.0;0.64;0.81
2.0;1.27;2.25
3.0;1.98;4.4
4.0;2.9;7.47
5.0;4.76;12.4
6.0;7.82;20.39
7.0;11.34;31.9
8.0;14.68;46.76
9.0;18.21;65.14
10.0;21.0;86.31
11.0;23.74;110.23
12.0;26.97;137.37
13.0;29.67;167.22
14.0;32.05;199.44
15.0;34.07;233.68
16.0;35.42;269.28
17.0;36.5;305.95
