GRAND_ID: 3736
DAM_NAME: 24.711458
LONG: 24.711458
LAT: 56.738673
Depth(m);Area(km2);Volume(mcm)
0.0;0.0;0.0
1.0;1.07;1.41
2.0;1.78;3.52
3.0;2.23;6.09
4.0;2.6;9.03
5.0;3.01;12.37
6.0;3.35;16.05
7.0;3.74;20.13
8.0;4.14;24.6
9.0;4.58;29.52
10.0;5.08;34.93
11.0;5.94;41.2
12.0;8.41;49.95
13.0;11.8;62.08
14.0;15.0;77.41
15.0;16.96;94.71
16.0;18.22;113.27
17.0;19.21;132.81
18.0;19.84;152.98
