GRAND_ID: 3741
DAM_NAME: 17.963313
LONG: 17.963313
LAT: 53.332444
Depth(m);Area(km2);Volume(mcm)
0.0;0.0;0.0
1.0;0.27;0.57
2.0;0.86;1.74
3.0;1.35;3.39
4.0;2.03;5.72
5.0;2.88;8.91
6.0;4.23;13.44
7.0;5.71;19.46
8.0;7.33;27.09
9.0;8.68;36.07
10.0;9.79;46.17
11.0;10.52;56.99
12.0;11.15;68.45
13.0;11.63;80.38
14.0;12.1;92.78
