GRAND_ID: 3740
DAM_NAME: 26.972983
LONG: 26.972983
LAT: 54.49375
Depth(m);Area(km2);Volume(mcm)
0.0;0.0;0.0
1.0;0.1;0.26
2.0;0.28;0.71
3.0;0.49;1.36
4.0;0.84;2.36
5.0;1.16;3.68
6.0;1.9;5.74
7.0;2.93;8.84
8.0;4.52;13.52
9.0;5.99;19.67
10.0;8.71;28.55
11.0;13.07;41.78
12.0;18.68;60.61
13.0;28.56;89.34
14.0;45.31;134.81
15.0;52.86;187.83
16.0;58.98;246.96
17.0;62.0;309.13
18.0;64.85;374.14
19.0;66.2;440.5
20.0;67.48;508.14
