GRAND_ID: 3757
DAM_NAME: 17.304651
LONG: 17.304651
LAT: 50.464243
Depth(m);Area(km2);Volume(mcm)
0.0;0.0;0.0
1.0;2.33;3.55
2.0;4.81;9.58
3.0;6.17;16.97
4.0;8.56;26.76
5.0;10.02;38.0
6.0;11.61;50.83
7.0;12.96;65.0
8.0;13.68;79.9
9.0;13.95;95.07
10.0;14.25;110.54
11.0;14.43;126.19
12.0;14.6;142.01
13.0;14.73;157.95
