GRAND_ID: 3772
DAM_NAME: 18.448027
LONG: 18.448027
LAT: 49.730761
Depth(m);Area(km2);Volume(mcm)
0.0;0.0;0.0
1.0;0.02;0.13
2.0;0.04;0.28
3.0;0.07;0.47
4.0;0.12;0.7
5.0;0.15;0.95
6.0;0.2;1.26
7.0;0.23;1.59
8.0;0.36;2.06
9.0;0.54;2.71
10.0;0.89;3.72
11.0;1.14;4.96
12.0;1.43;6.5
13.0;1.58;8.19
14.0;1.83;10.13
15.0;1.93;12.17
16.0;2.08;14.36
17.0;2.13;16.6
