GRAND_ID: 3788
DAM_NAME: 16.179475
LONG: 16.179475
LAT: 49.102311
Depth(m);Area(km2);Volume(mcm)
0.0;0.0;0.0
1.0;0.04;0.16
2.0;0.14;0.43
3.0;0.18;0.74
4.0;0.23;1.1
5.0;0.27;1.49
6.0;0.31;1.92
7.0;0.33;2.38
8.0;0.35;2.85
9.0;0.37;3.35
10.0;0.4;3.87
11.0;0.41;4.41
12.0;0.43;4.96
