GRAND_ID: 3794
DAM_NAME: 16.722014
LONG: 16.722014
LAT: 48.860926
Depth(m);Area(km2);Volume(mcm)
0.0;0.0;0.0
1.0;0.27;0.61
2.0;0.64;1.59
3.0;1.02;2.95
4.0;1.88;5.17
5.0;2.58;8.09
6.0;4.61;13.05
7.0;6.72;20.1
8.0;9.96;30.4
9.0;12.72;43.46
10.0;16.51;60.31
11.0;19.45;80.1
12.0;23.79;104.23
13.0;25.35;129.92
14.0;26.38;156.64
