GRAND_ID: 3834
DAM_NAME: 15.151171
LONG: 15.151171
LAT: 46.59269
Depth(m);Area(km2);Volume(mcm)
0.0;0.0;0.0
1.0;0.1;0.23
2.0;0.18;0.53
3.0;0.28;0.93
4.0;0.32;1.37
5.0;0.42;1.91
6.0;0.5;2.54
7.0;0.62;3.28
8.0;0.73;4.14
9.0;0.83;5.09
10.0;0.91;6.12
11.0;0.99;7.24
12.0;1.06;8.43
13.0;1.16;9.71
14.0;1.21;11.04
15.0;1.33;12.49
16.0;1.39;14.0
17.0;1.45;15.58
