GRAND_ID: 3868
DAM_NAME: 24.29828
LONG: 24.29828
LAT: 45.011015
Depth(m);Area(km2);Volume(mcm)
0.0;0.0;0.0
1.0;0.11;0.38
2.0;0.35;1.01
3.0;0.79;2.07
4.0;1.62;3.96
5.0;2.37;6.6
6.0;3.1;9.97
7.0;3.4;13.63
8.0;3.66;17.57
9.0;3.83;21.67
10.0;4.14;26.08
11.0;4.26;30.61
12.0;4.34;35.22
