GRAND_ID: 3926
DAM_NAME: 24.246526
LONG: 24.246526
LAT: 43.317082
Depth(m);Area(km2);Volume(mcm)
0.0;0.0;0.0
1.0;0.04;0.16
2.0;0.08;0.35
3.0;0.11;0.58
4.0;0.17;0.87
5.0;0.22;1.21
6.0;0.35;1.68
7.0;0.45;2.25
8.0;0.57;2.94
9.0;0.68;3.74
10.0;0.87;4.73
11.0;1.1;5.96
12.0;1.34;7.42
13.0;1.47;9.01
14.0;1.61;10.74
15.0;1.68;12.53
