GRAND_ID: 3935
DAM_NAME: 27.464672
LONG: 27.464672
LAT: 43.000848
Depth(m);Area(km2);Volume(mcm)
0.0;0.0;0.0
1.0;0.01;0.12
2.0;0.02;0.25
3.0;0.09;0.44
4.0;0.18;0.73
5.0;0.26;1.1
6.0;0.34;1.54
7.0;0.4;2.05
8.0;0.47;2.62
9.0;0.54;3.27
10.0;0.61;3.99
11.0;0.66;4.75
12.0;0.7;5.55
13.0;0.74;6.4
14.0;0.77;7.28
15.0;0.8;8.18
16.0;0.82;9.1
17.0;0.83;10.04
18.0;0.85;10.99
