GRAND_ID: 3947
DAM_NAME: 27.516898
LONG: 27.516898
LAT: 42.71278
Depth(m);Area(km2);Volume(mcm)
0.0;0.0;0.0
1.0;0.03;0.15
2.0;0.05;0.32
3.0;0.09;0.53
4.0;0.12;0.78
5.0;0.17;1.07
6.0;0.21;1.4
7.0;0.26;1.78
8.0;0.29;2.19
9.0;0.33;2.64
10.0;0.36;3.13
11.0;0.42;3.67
12.0;0.45;4.24
13.0;0.5;4.87
14.0;0.55;5.54
15.0;0.62;6.28
16.0;0.66;7.06
17.0;0.74;7.92
18.0;0.78;8.82
19.0;0.81;9.75
