GRAND_ID: 3970
DAM_NAME: 25.427083
LONG: 25.427083
LAT: 41.985417
Depth(m);Area(km2);Volume(mcm)
0.0;0.0;0.0
1.0;0.05;0.16
2.0;0.12;0.39
3.0;0.19;0.68
4.0;0.25;1.04
5.0;0.33;1.48
6.0;0.39;1.98
7.0;0.47;2.56
8.0;0.53;3.19
9.0;0.6;3.91
10.0;0.69;4.7
11.0;0.76;5.57
12.0;0.81;6.48
13.0;0.86;7.45
14.0;0.9;8.46
15.0;0.94;9.51
16.0;0.95;10.57
17.0;0.98;11.66
