GRAND_ID: 3997
DAM_NAME: 26.588542
LONG: 26.588542
LAT: 41.078069
Depth(m);Area(km2);Volume(mcm)
0.0;0.0;0.0
1.0;0.22;0.34
2.0;0.5;0.96
3.0;0.81;1.89
4.0;1.06;3.08
5.0;1.41;4.61
6.0;1.79;6.53
7.0;2.09;8.74
8.0;2.46;11.32
9.0;2.85;14.29
10.0;3.12;17.53
11.0;3.36;21.02
12.0;3.55;24.69
13.0;3.7;28.52
14.0;3.79;32.42
