GRAND_ID: 4001
DAM_NAME: 27.005075
LONG: 27.005075
LAT: 40.953145
Depth(m);Area(km2);Volume(mcm)
0.0;0.0;0.0
1.0;0.4;0.67
2.0;0.72;1.66
3.0;1.11;3.04
4.0;1.53;4.84
5.0;2.23;7.34
6.0;3.03;10.63
7.0;3.98;14.88
8.0;4.88;20.03
9.0;6.23;26.52
10.0;7.88;34.67
11.0;9.49;44.43
12.0;10.78;55.48
13.0;11.86;67.61
14.0;12.35;80.23
15.0;12.72;93.22
16.0;12.86;106.35
