GRAND_ID: 4000
DAM_NAME: 28.56879
LONG: 28.56879
LAT: 41.02741
Depth(m);Area(km2);Volume(mcm)
0.0;0.0;0.0
1.0;0.69;0.84
2.0;1.95;2.95
3.0;4.77;7.88
4.0;7.95;15.99
5.0;11.98;28.12
6.0;16.39;44.67
7.0;21.19;66.01
8.0;23.95;90.12
9.0;25.64;115.91
10.0;26.15;142.22
11.0;26.49;168.86
12.0;26.69;195.71
