GRAND_ID: 4011
DAM_NAME: 29.320304
LONG: 29.320304
LAT: 40.218737
Depth(m);Area(km2);Volume(mcm)
0.0;0.0;0.0
1.0;0.17;0.3
2.0;0.33;0.76
3.0;0.49;1.38
4.0;0.59;2.11
5.0;0.74;2.99
6.0;0.86;3.99
7.0;1.04;5.16
8.0;1.15;6.44
9.0;1.31;7.88
10.0;1.41;9.42
11.0;1.55;11.1
12.0;1.61;12.85
13.0;1.66;14.64
14.0;1.68;16.45
15.0;1.7;18.29
