GRAND_ID: 4029
DAM_NAME: 21.327036
LONG: 21.327036
LAT: 38.67807
Depth(m);Area(km2);Volume(mcm)
0.0;0.0;0.0
1.0;0.1;0.28
2.0;0.23;0.69
3.0;0.43;1.3
4.0;0.9;2.37
5.0;1.5;4.05
6.0;2.41;6.63
7.0;4.2;11.02
8.0;5.25;16.45
9.0;5.7;22.33
10.0;6.18;28.69
11.0;6.45;35.32
12.0;6.74;42.24
13.0;7.0;49.42
14.0;7.21;56.8
15.0;7.35;64.34
