GRAND_ID: 4040
DAM_NAME: 25.698958
LONG: 25.698958
LAT: 35.036327
Depth(m);Area(km2);Volume(mcm)
0.0;0.0;0.0
1.0;0.04;0.16
2.0;0.07;0.35
3.0;0.11;0.58
4.0;0.14;0.84
5.0;0.18;1.14
6.0;0.22;1.48
7.0;0.26;1.85
8.0;0.29;2.26
9.0;0.31;2.69
10.0;0.35;3.16
11.0;0.39;3.66
12.0;0.42;4.2
13.0;0.46;4.78
14.0;0.49;5.39
15.0;0.51;6.01
16.0;0.53;6.66
17.0;0.54;7.32
18.0;0.55;7.98
19.0;0.55;8.65
20.0;0.56;9.33
21.0;0.56;10.01
22.0;0.56;10.69
