GRAND_ID: 4317
DAM_NAME: 25.265026
LONG: 25.265026
LAT: -33.693218
Depth(m);Area(km2);Volume(mcm)
0.0;0.0;0.0
1.0;0.01;0.13
2.0;0.03;0.27
3.0;0.04;0.42
4.0;0.06;0.59
5.0;0.07;0.77
6.0;0.09;0.97
7.0;0.11;1.2
8.0;0.14;1.45
9.0;0.17;1.73
10.0;0.24;2.09
11.0;0.29;2.49
12.0;0.34;2.94
13.0;0.36;3.42
14.0;0.41;3.94
15.0;0.43;4.48
16.0;0.45;5.05
17.0;0.47;5.63
18.0;0.48;6.22
19.0;0.49;6.82
20.0;0.5;7.43
21.0;0.51;8.05
22.0;0.52;8.68
23.0;0.52;9.32
