GRAND_ID: 4367
DAM_NAME: 37.717499
LONG: 37.717499
LAT: 55.978055
Depth(m);Area(km2);Volume(mcm)
0.0;0.0;0.0
1.0;0.11;0.23
2.0;0.22;0.56
3.0;0.6;1.28
4.0;1.51;2.91
5.0;3.65;6.68
6.0;5.51;12.31
7.0;8.01;20.43
8.0;9.54;30.09
9.0;11.21;41.43
10.0;12.25;53.8
11.0;13.18;67.1
12.0;13.64;80.85
13.0;14.03;95.01
14.0;14.19;109.32
