GRAND_ID: 4379
DAM_NAME: 39.116201
LONG: 39.116201
LAT: 44.985344
Depth(m);Area(km2);Volume(mcm)
0.0;0.0;0.0
1.0;17.73;20.89
2.0;31.22;55.28
3.0;41.68;100.12
4.0;54.91;158.2
5.0;81.61;242.97
6.0;157.71;403.85
7.0;210.66;617.67
8.0;241.34;862.18
9.0;263.72;1129.07
10.0;281.78;1414.01
11.0;296.15;1713.33
12.0;304.59;2021.08
13.0;309.84;2334.08
