GRAND_ID: 4397
DAM_NAME: 33.019742
LONG: 33.019742
LAT: 40.290135
Depth(m);Area(km2);Volume(mcm)
0.0;0.0;0.0
1.0;0.02;0.13
2.0;0.03;0.27
3.0;0.05;0.44
4.0;0.08;0.63
5.0;0.1;0.84
6.0;0.12;1.08
7.0;0.16;1.35
8.0;0.2;1.67
9.0;0.24;2.02
10.0;0.28;2.42
11.0;0.33;2.86
12.0;0.4;3.37
13.0;0.46;3.95
14.0;0.52;4.58
15.0;0.56;5.25
16.0;0.61;5.97
17.0;0.64;6.73
18.0;0.68;7.52
19.0;0.71;8.34
20.0;0.74;9.2
21.0;0.77;10.08
22.0;0.79;10.98
23.0;0.8;11.89
