GRAND_ID: 4415
DAM_NAME: 30.56717
LONG: 30.56717
LAT: 39.357148
Depth(m);Area(km2);Volume(mcm)
0.0;0.0;0.0
1.0;0.03;0.18
2.0;0.11;0.44
3.0;0.17;0.76
4.0;0.32;1.24
5.0;0.46;1.85
6.0;0.71;2.71
7.0;0.91;3.77
8.0;1.09;5.01
9.0;1.19;6.36
10.0;1.3;7.81
11.0;1.38;9.34
12.0;1.43;10.92
13.0;1.46;12.53
