GRAND_ID: 4426
DAM_NAME: 34.132842
LONG: 34.132842
LAT: 38.402863
Depth(m);Area(km2);Volume(mcm)
0.0;0.0;0.0
1.0;0.05;0.16
2.0;0.09;0.37
3.0;0.16;0.64
4.0;0.22;0.98
5.0;0.26;1.35
6.0;0.42;1.89
7.0;0.71;2.71
8.0;1.0;3.82
9.0;1.31;5.25
10.0;2.04;7.4
11.0;2.83;10.35
12.0;3.61;14.07
13.0;4.93;19.11
14.0;5.88;25.1
15.0;6.59;31.81
16.0;7.3;39.22
17.0;7.78;47.11
18.0;8.09;55.31
19.0;8.27;63.69
20.0;8.4;72.21
