GRAND_ID: 4424
DAM_NAME: 30.790764
LONG: 30.790764
LAT: 38.78588
Depth(m);Area(km2);Volume(mcm)
0.0;0.0;0.0
1.0;0.18;0.34
2.0;0.51;1.01
3.0;0.8;1.97
4.0;1.08;3.21
5.0;1.37;4.74
6.0;1.71;6.6
7.0;2.16;8.93
8.0;2.55;11.64
9.0;2.9;14.69
10.0;3.18;18.03
11.0;3.45;21.63
12.0;3.64;25.43
