GRAND_ID: 4476
DAM_NAME: 30.397917
LONG: 30.397917
LAT: 29.18125
Depth(m);Area(km2);Volume(mcm)
0.0;0.0;0.0
1.0;4.96;5.76
2.0;15.25;21.8
3.0;22.22;44.81
4.0;29.19;74.8
5.0;35.05;110.64
6.0;40.72;152.16
7.0;46.02;198.98
8.0;49.94;249.72
9.0;51.99;302.51
10.0;53.46;356.76
11.0;54.52;412.07
12.0;55.14;468.0
