GRAND_ID: 4693
DAM_NAME: 65.548958
LONG: 65.548958
LAT: 38.328258
Depth(m);Area(km2);Volume(mcm)
0.0;0.0;0.0
1.0;0.75;1.04
2.0;2.75;4.09
3.0;4.51;8.9
4.0;10.83;20.02
5.0;16.22;36.54
6.0;27.34;64.17
7.0;35.06;99.52
8.0;43.56;143.38
9.0;47.39;191.06
10.0;52.37;243.73
11.0;54.29;298.32
12.0;56.72;355.34
13.0;57.94;413.57
14.0;59.78;473.65
15.0;60.75;534.69
16.0;61.94;596.93
17.0;62.4;659.62
18.0;62.95;722.87
19.0;63.17;786.33
