GRAND_ID: 4727
DAM_NAME: 74.030612
LONG: 74.030612
LAT: 23.977067
Depth(m);Area(km2);Volume(mcm)
0.0;0.0;0.0
1.0;0.46;0.81
2.0;1.02;2.18
3.0;1.7;4.24
4.0;2.43;7.02
5.0;3.24;10.62
6.0;4.59;15.57
7.0;5.56;21.48
8.0;7.87;29.71
9.0;9.8;39.86
10.0;12.1;52.31
11.0;13.82;66.48
12.0;15.33;82.17
13.0;16.18;98.7
14.0;16.88;115.94
15.0;17.23;133.52
16.0;17.53;151.4
