GRAND_ID: 4735
DAM_NAME: 70.769047
LONG: 70.769047
LAT: 21.814583
Depth(m);Area(km2);Volume(mcm)
0.0;0.0;0.0
1.0;0.15;0.43
2.0;0.41;1.1
3.0;1.02;2.39
4.0;2.88;5.54
5.0;4.78;10.6
6.0;6.67;17.54
7.0;8.45;26.27
8.0;11.02;37.55
9.0;13.61;51.44
10.0;17.47;69.18
11.0;23.07;92.52
12.0;30.16;122.95
13.0;33.64;156.86
14.0;36.6;193.73
15.0;38.25;232.25
16.0;38.99;271.51
