GRAND_ID: 4811
DAM_NAME: 77.997917
LONG: 77.997917
LAT: 26.222917
Depth(m);Area(km2);Volume(mcm)
0.0;0.0;0.0
1.0;0.24;0.44
2.0;0.58;1.21
3.0;0.87;2.28
4.0;1.32;3.81
5.0;1.82;5.83
6.0;2.49;8.52
7.0;3.01;11.72
8.0;3.8;15.73
9.0;4.84;20.77
10.0;6.38;27.35
11.0;7.42;34.96
12.0;8.73;43.9
13.0;10.03;54.13
14.0;11.65;65.98
15.0;13.08;79.26
16.0;15.07;94.53
17.0;15.96;110.7
18.0;16.59;127.48
19.0;16.83;144.51
20.0;17.01;161.73
21.0;17.09;179.01
