GRAND_ID: 4821
DAM_NAME: 79.548169
LONG: 79.548169
LAT: 25.192111
Depth(m);Area(km2);Volume(mcm)
0.0;0.0;0.0
1.0;0.09;0.24
2.0;0.19;0.59
3.0;0.39;1.13
4.0;0.57;1.85
5.0;0.95;2.96
6.0;1.2;4.31
7.0;1.68;6.15
8.0;2.05;8.36
9.0;2.49;11.0
10.0;2.89;14.04
11.0;3.4;17.6
12.0;3.68;21.43
13.0;3.98;25.57
14.0;4.18;29.9
15.0;4.34;34.39
