GRAND_ID: 4835
DAM_NAME: 83.170637
LONG: 83.170637
LAT: 24.929348
Depth(m);Area(km2);Volume(mcm)
0.0;0.0;0.0
1.0;0.7;1.43
2.0;1.29;3.46
3.0;1.97;6.15
4.0;2.43;9.31
5.0;3.2;13.24
6.0;4.07;18.04
7.0;5.08;23.85
8.0;5.9;30.48
9.0;6.81;38.02
10.0;7.43;46.18
11.0;8.21;55.12
12.0;8.69;64.54
13.0;9.14;74.41
14.0;9.38;84.53
