GRAND_ID: 4837
DAM_NAME: 83.01026
LONG: 83.01026
LAT: 24.901539
Depth(m);Area(km2);Volume(mcm)
0.0;0.0;0.0
1.0;0.05;0.19
2.0;0.2;0.52
3.0;0.36;1.02
4.0;0.68;1.84
5.0;0.97;2.93
6.0;1.68;4.75
7.0;2.41;7.29
8.0;3.56;10.99
9.0;4.01;15.13
10.0;4.57;19.83
11.0;4.78;24.74
12.0;5.02;29.9
13.0;5.1;35.14
