GRAND_ID: 4838
DAM_NAME: 86.639583
LONG: 86.639583
LAT: 24.884162
Depth(m);Area(km2);Volume(mcm)
0.0;0.0;0.0
1.0;0.12;0.26
2.0;0.35;0.75
3.0;0.67;1.55
4.0;1.02;2.71
5.0;1.34;4.19
6.0;1.73;6.05
7.0;2.25;8.44
8.0;3.24;11.82
9.0;4.46;16.41
10.0;6.09;22.63
11.0;7.38;30.15
12.0;8.37;38.66
13.0;8.91;47.7
14.0;9.37;57.21
15.0;9.69;67.04
16.0;9.97;77.14
17.0;10.13;87.41
