GRAND_ID: 4840
DAM_NAME: 82.499662
LONG: 82.499662
LAT: 24.838777
Depth(m);Area(km2);Volume(mcm)
0.0;0.0;0.0
1.0;0.16;0.38
2.0;0.44;1.04
3.0;0.8;2.06
4.0;1.89;4.17
5.0;4.0;8.39
6.0;8.57;17.17
7.0;12.84;30.24
8.0;16.79;47.24
9.0;18.56;66.03
10.0;20.24;86.49
11.0;21.13;107.84
12.0;21.94;130.01
13.0;22.39;152.62
