GRAND_ID: 4849
DAM_NAME: 85.492829
LONG: 85.492829
LAT: 24.596066
Depth(m);Area(km2);Volume(mcm)
0.0;0.0;0.0
1.0;0.16;0.28
2.0;0.68;1.07
3.0;1.65;2.84
4.0;2.79;5.74
5.0;3.31;9.17
6.0;3.94;13.23
7.0;4.35;17.69
8.0;4.82;22.63
9.0;5.15;27.9
10.0;5.61;33.62
11.0;5.94;39.68
12.0;6.45;46.25
13.0;6.7;53.06
