GRAND_ID: 4845
DAM_NAME: 86.913542
LONG: 86.913542
LAT: 24.675737
Depth(m);Area(km2);Volume(mcm)
0.0;0.0;0.0
1.0;0.16;0.31
2.0;0.29;0.74
3.0;0.58;1.47
4.0;0.96;2.58
5.0;1.25;3.98
6.0;1.5;5.62
7.0;2.48;8.24
8.0;3.18;11.57
9.0;3.97;15.68
10.0;4.38;20.21
11.0;4.78;25.13
12.0;5.01;30.28
13.0;5.23;35.66
14.0;5.35;41.15
