GRAND_ID: 4890
DAM_NAME: 84.655208
LONG: 84.655208
LAT: 22.270161
Depth(m);Area(km2);Volume(mcm)
0.0;0.0;0.0
1.0;0.31;0.63
2.0;0.72;1.68
3.0;1.01;3.02
4.0;1.43;4.77
5.0;2.12;7.22
6.0;4.96;12.51
7.0;7.36;20.2
8.0;10.2;30.73
9.0;12.72;43.77
10.0;18.66;62.75
11.0;21.75;84.83
12.0;25.23;110.39
13.0;27.65;138.37
14.0;30.85;169.54
15.0;33.25;203.12
16.0;36.15;239.6
17.0;37.77;277.69
18.0;39.4;317.42
19.0;40.26;358.01
20.0;41.11;399.45
