GRAND_ID: 4900
DAM_NAME: 84.555659
LONG: 84.555659
LAT: 21.473183
Depth(m);Area(km2);Volume(mcm)
0.0;0.0;0.0
1.0;1.5;2.13
2.0;2.53;5.28
3.0;3.46;9.37
4.0;4.11;14.11
5.0;5.21;19.95
6.0;6.01;26.59
7.0;7.11;34.32
8.0;7.71;42.66
9.0;8.47;51.76
10.0;8.93;61.31
11.0;9.49;71.43
12.0;9.85;81.9
13.0;10.27;92.8
14.0;10.56;103.99
15.0;10.89;115.5
16.0;11.09;127.22
