GRAND_ID: 4915
DAM_NAME: 85.597804
LONG: 85.597804
LAT: 21.114866
Depth(m);Area(km2);Volume(mcm)
0.0;0.0;0.0
1.0;0.29;0.4
2.0;1.02;1.53
3.0;2.26;3.9
4.0;3.82;7.83
5.0;5.19;13.13
6.0;6.46;19.7
7.0;7.9;27.71
8.0;9.02;36.84
9.0;10.17;47.12
10.0;11.01;58.23
11.0;11.85;70.2
12.0;12.52;82.83
13.0;13.24;96.18
14.0;13.68;109.97
15.0;13.97;124.06
