GRAND_ID: 4916
DAM_NAME: 75.948958
LONG: 75.948958
LAT: 21.076214
Depth(m);Area(km2);Volume(mcm)
0.0;0.0;0.0
1.0;0.04;0.15
2.0;0.08;0.34
3.0;0.15;0.59
4.0;0.24;0.94
5.0;0.38;1.43
6.0;0.48;2.02
7.0;0.61;2.74
8.0;0.76;3.6
9.0;1.01;4.72
10.0;1.28;6.1
11.0;2.1;8.31
12.0;3.65;12.06
13.0;7.41;19.58
14.0;10.36;30.06
15.0;13.83;44.0
16.0;16.71;60.82
17.0;18.59;79.52
18.0;19.4;99.03
