GRAND_ID: 4920
DAM_NAME: 79.04141
LONG: 79.04141
LAT: 20.824677
Depth(m);Area(km2);Volume(mcm)
0.0;0.0;0.0
1.0;0.21;0.32
2.0;0.99;1.42
3.0;5.42;6.95
4.0;11.55;18.61
5.0;14.75;33.47
6.0;18.34;51.93
7.0;21.13;73.17
8.0;24.77;98.06
9.0;26.85;125.02
10.0;28.95;154.09
11.0;30.49;184.69
12.0;32.27;217.07
13.0;33.18;250.36
