GRAND_ID: 4936
DAM_NAME: 85.076465
LONG: 85.076465
LAT: 19.801626
Depth(m);Area(km2);Volume(mcm)
0.0;0.0;0.0
1.0;0.15;0.33
2.0;0.35;0.87
3.0;0.6;1.65
4.0;0.89;2.72
5.0;1.14;4.04
6.0;1.44;5.67
7.0;1.73;7.58
8.0;2.09;9.85
9.0;2.59;12.62
10.0;3.21;16.02
11.0;3.71;19.92
12.0;4.29;24.39
13.0;4.85;29.42
14.0;5.45;35.06
15.0;5.99;41.23
16.0;6.51;47.92
17.0;6.97;55.08
18.0;7.4;62.66
19.0;7.72;70.57
20.0;7.98;78.73
