GRAND_ID: 4944
DAM_NAME: 76.187625
LONG: 76.187625
LAT: 19.162202
Depth(m);Area(km2);Volume(mcm)
0.0;0.0;0.0
1.0;0.13;0.34
2.0;0.54;1.09
3.0;0.85;2.15
4.0;2.09;4.45
5.0;2.8;7.46
6.0;4.49;12.16
7.0;6.12;18.48
8.0;11.22;29.91
9.0;14.98;45.1
10.0;25.93;71.23
11.0;34.62;106.06
12.0;42.93;149.2
13.0;47.81;197.23
14.0;55.4;252.84
15.0;59.25;312.3
16.0;64.56;377.07
17.0;67.03;444.3
18.0;69.29;513.8
