GRAND_ID: 4957
DAM_NAME: 79.942824
LONG: 79.942824
LAT: 18.247433
Depth(m);Area(km2);Volume(mcm)
0.0;0.0;0.0
1.0;0.15;0.28
2.0;0.36;0.76
3.0;1.14;2.03
4.0;2.09;4.24
5.0;3.51;7.88
6.0;5.46;13.46
7.0;8.56;22.16
8.0;9.91;32.19
9.0;11.39;43.7
10.0;12.13;55.95
11.0;12.99;69.07
12.0;13.53;82.73
13.0;14.14;96.99
14.0;14.45;111.57
15.0;14.74;126.43
