GRAND_ID: 4960
DAM_NAME: 80.092708
LONG: 80.092708
LAT: 18.163726
Depth(m);Area(km2);Volume(mcm)
0.0;0.0;0.0
1.0;0.14;0.29
2.0;0.36;0.79
3.0;0.51;1.45
4.0;0.83;2.42
5.0;1.16;3.73
6.0;1.78;5.65
7.0;2.36;8.16
8.0;3.54;11.85
9.0;4.16;16.15
10.0;4.96;21.26
11.0;5.5;26.91
12.0;6.27;33.32
13.0;6.82;40.29
14.0;7.87;48.31
15.0;8.58;57.04
16.0;9.65;66.83
17.0;10.2;77.18
18.0;10.6;87.94
19.0;10.81;98.89
20.0;11.0;110.03
21.0;11.13;121.31
