GRAND_ID: 4966
DAM_NAME: 79.985417
LONG: 79.985417
LAT: 17.952083
Depth(m);Area(km2);Volume(mcm)
0.0;0.0;0.0
1.0;0.04;0.15
2.0;0.11;0.37
3.0;0.19;0.66
4.0;0.31;1.08
5.0;0.48;1.66
6.0;0.84;2.61
7.0;1.2;3.92
8.0;1.45;5.48
9.0;1.87;7.45
10.0;2.39;9.95
11.0;3.22;13.28
12.0;4.03;17.42
13.0;4.99;22.52
14.0;5.71;28.33
15.0;7.32;35.76
16.0;8.75;44.62
17.0;10.52;55.24
18.0;11.34;66.69
19.0;11.93;78.73
20.0;12.18;91.02
21.0;12.38;103.5
