GRAND_ID: 4986
DAM_NAME: 78.680222
LONG: 78.680222
LAT: 16.539766
Depth(m);Area(km2);Volume(mcm)
0.0;0.0;0.0
1.0;0.21;0.36
2.0;0.48;0.99
3.0;0.88;2.02
4.0;1.28;3.45
5.0;2.29;5.9
6.0;3.07;9.12
7.0;4.3;13.56
8.0;5.08;18.79
9.0;6.89;25.83
10.0;8.49;34.48
11.0;11.89;46.52
12.0;13.64;60.31
