GRAND_ID: 4984
DAM_NAME: 77.774592
LONG: 77.774592
LAT: 16.711539
Depth(m);Area(km2);Volume(mcm)
0.0;0.0;0.0
1.0;0.18;0.45
2.0;0.45;1.17
3.0;0.68;2.11
4.0;1.15;3.53
5.0;1.4;5.2
6.0;1.87;7.34
7.0;2.13;9.74
8.0;2.86;12.87
9.0;3.5;16.65
10.0;4.51;21.43
11.0;5.29;26.99
12.0;6.81;34.08
13.0;7.53;41.88
14.0;8.34;50.48
15.0;8.59;59.34
