GRAND_ID: 5026
DAM_NAME: 76.370331
LONG: 76.370331
LAT: 10.529262
Depth(m);Area(km2);Volume(mcm)
0.0;0.0;0.0
1.0;0.19;0.34
2.0;0.48;0.97
3.0;0.76;1.89
4.0;1.16;3.2
5.0;1.59;4.94
6.0;2.11;7.2
7.0;2.54;9.89
8.0;3.03;13.07
9.0;3.46;16.68
10.0;3.87;20.7
11.0;4.3;25.15
12.0;4.69;29.99
13.0;5.08;35.22
14.0;5.41;40.78
15.0;5.74;46.67
16.0;6.03;52.85
17.0;6.25;59.25
18.0;6.46;65.86
