GRAND_ID: 5039
DAM_NAME: 77.5844
LONG: 77.5844
LAT: 10.049573
Depth(m);Area(km2);Volume(mcm)
0.0;0.0;0.0
1.0;0.08;0.24
2.0;0.48;0.88
3.0;0.83;1.87
4.0;1.83;3.85
5.0;2.41;6.42
6.0;3.48;10.06
7.0;4.35;14.56
8.0;5.91;20.63
9.0;6.94;27.73
10.0;8.14;36.03
11.0;8.63;44.81
12.0;9.1;54.07
