GRAND_ID: 5046
DAM_NAME: 80.89291
LONG: 80.89291
LAT: 8.027173
Depth(m);Area(km2);Volume(mcm)
0.0;0.0;0.0
1.0;0.24;0.35
2.0;0.42;0.88
3.0;1.19;2.18
4.0;2.3;4.59
5.0;4.0;8.7
6.0;5.73;14.54
7.0;7.89;22.54
8.0;9.34;31.99
9.0;10.96;43.07
10.0;12.35;55.53
11.0;13.88;69.51
12.0;15.16;84.78
13.0;16.77;101.66
14.0;18.19;119.96
15.0;19.71;139.78
16.0;20.85;160.74
17.0;22.05;182.9
18.0;22.85;205.86
19.0;23.59;229.56
