GRAND_ID: 5084
DAM_NAME: 104.07385
LONG: 104.07385
LAT: 29.392395
Depth(m);Area(km2);Volume(mcm)
0.0;0.0;0.0
1.0;0.25;0.46
2.0;0.45;1.11
3.0;0.83;2.14
4.0;0.94;3.29
5.0;1.13;4.63
6.0;1.25;6.08
7.0;1.44;7.73
8.0;1.62;9.55
9.0;1.86;11.62
10.0;2.06;13.89
11.0;2.28;16.37
12.0;2.39;18.97
