GRAND_ID: 5099
DAM_NAME: 100.648745
LONG: 100.648745
LAT: 25.693068
Depth(m);Area(km2);Volume(mcm)
0.0;0.0;0.0
1.0;0.07;0.19
2.0;0.16;0.47
3.0;0.23;0.82
4.0;0.38;1.32
5.0;0.52;1.96
6.0;0.68;2.76
7.0;0.84;3.72
8.0;1.09;4.92
9.0;1.39;6.43
10.0;1.8;8.35
11.0;2.12;10.59
12.0;2.61;13.32
13.0;3.03;16.47
14.0;3.78;20.38
15.0;4.67;25.17
16.0;5.44;30.72
17.0;6.03;36.87
