GRAND_ID: 5104
DAM_NAME: 102.172917
LONG: 102.172917
LAT: 25.501605
Depth(m);Area(km2);Volume(mcm)
0.0;0.0;0.0
1.0;0.05;0.2
2.0;0.1;0.45
3.0;0.15;0.75
4.0;0.2;1.1
5.0;0.27;1.51
6.0;0.32;1.99
7.0;0.39;2.53
8.0;0.43;3.11
9.0;0.48;3.74
10.0;0.53;4.42
11.0;0.58;5.15
12.0;0.64;5.94
13.0;0.69;6.79
14.0;0.74;7.68
15.0;0.8;8.62
16.0;0.85;9.62
17.0;0.9;10.67
18.0;0.93;11.75
19.0;0.97;12.87
20.0;0.99;14.01
