GRAND_ID: 5101
DAM_NAME: 103.723295
LONG: 103.723295
LAT: 25.596421
Depth(m);Area(km2);Volume(mcm)
0.0;0.0;0.0
1.0;0.07;0.19
2.0;0.17;0.48
3.0;0.29;0.88
4.0;0.41;1.4
5.0;0.49;2.01
6.0;0.62;2.74
7.0;0.79;3.64
8.0;1.03;4.79
9.0;1.33;6.23
10.0;1.64;7.99
11.0;2.0;10.11
12.0;2.35;12.58
13.0;2.63;15.32
14.0;2.97;18.4
15.0;3.24;21.76
16.0;3.57;25.44
17.0;3.75;29.3
