GRAND_ID: 5109
DAM_NAME: 103.820092
LONG: 103.820092
LAT: 25.175545
Depth(m);Area(km2);Volume(mcm)
0.0;0.0;0.0
1.0;0.24;0.46
2.0;0.55;1.24
3.0;0.78;2.25
4.0;1.03;3.51
5.0;1.27;5.01
6.0;1.53;6.77
7.0;1.74;8.73
8.0;1.97;10.93
9.0;2.17;13.33
10.0;2.41;15.97
11.0;2.58;18.78
12.0;2.81;21.82
13.0;2.93;24.97
