GRAND_ID: 5113
DAM_NAME: 102.932292
LONG: 102.932292
LAT: 25.038556
Depth(m);Area(km2);Volume(mcm)
0.0;0.0;0.0
1.0;0.03;0.15
2.0;0.07;0.34
3.0;0.11;0.57
4.0;0.18;0.86
5.0;0.24;1.22
6.0;0.3;1.63
7.0;0.34;2.09
8.0;0.38;2.59
9.0;0.43;3.14
10.0;0.49;3.74
11.0;0.53;4.38
12.0;0.58;5.08
13.0;0.63;5.83
14.0;0.69;6.64
15.0;0.75;7.5
16.0;0.81;8.43
17.0;0.88;9.43
18.0;0.97;10.51
19.0;1.04;11.67
20.0;1.16;12.94
21.0;1.16;14.22
