GRAND_ID: 5110
DAM_NAME: 103.602621
LONG: 103.602621
LAT: 25.14375
Depth(m);Area(km2);Volume(mcm)
0.0;0.0;0.0
1.0;0.03;0.16
2.0;0.08;0.36
3.0;0.15;0.63
4.0;0.25;1.01
5.0;0.32;1.45
6.0;0.41;1.98
7.0;0.47;2.57
8.0;0.54;3.24
9.0;0.6;3.96
10.0;0.7;4.79
11.0;0.79;5.7
12.0;0.9;6.73
13.0;1.05;7.9
14.0;1.25;9.27
15.0;1.45;10.84
16.0;1.63;12.59
