GRAND_ID: 5116
DAM_NAME: 99.214583
LONG: 99.214583
LAT: 24.649321
Depth(m);Area(km2);Volume(mcm)
0.0;0.0;0.0
1.0;0.04;0.15
2.0;0.06;0.32
3.0;0.11;0.55
4.0;0.16;0.82
5.0;0.21;1.14
6.0;0.25;1.51
7.0;0.3;1.92
8.0;0.37;2.4
9.0;0.43;2.94
10.0;0.48;3.54
11.0;0.54;4.19
12.0;0.61;4.91
13.0;0.75;5.78
14.0;0.88;6.77
15.0;1.02;7.9
16.0;1.13;9.14
17.0;1.27;10.52
18.0;1.41;12.03
19.0;1.53;13.68
