GRAND_ID: 5112
DAM_NAME: 104.838036
LONG: 104.838036
LAT: 25.099311
Depth(m);Area(km2);Volume(mcm)
0.0;0.0;0.0
1.0;0.05;0.21
2.0;0.13;0.5
3.0;0.19;0.85
4.0;0.26;1.27
5.0;0.33;1.75
6.0;0.4;2.3
7.0;0.44;2.91
8.0;0.51;3.58
9.0;0.59;4.32
10.0;0.66;5.14
11.0;0.73;6.03
12.0;0.81;6.99
13.0;0.87;8.02
14.0;0.93;9.11
15.0;1.0;10.27
16.0;1.07;11.5
