GRAND_ID: 5141
DAM_NAME: 96.036916
LONG: 96.036916
LAT: 17.376187
Depth(m);Area(km2);Volume(mcm)
0.0;0.0;0.0
1.0;0.16;0.31
2.0;0.3;0.75
3.0;0.47;1.37
4.0;0.58;2.09
5.0;0.68;2.91
6.0;0.77;3.83
7.0;0.87;4.85
8.0;0.98;5.97
9.0;1.11;7.23
10.0;1.22;8.6
11.0;1.45;10.19
12.0;1.69;12.03
13.0;2.0;14.18
14.0;2.38;16.7
15.0;2.73;19.58
16.0;3.04;22.77
17.0;3.37;26.29
18.0;3.65;30.09
19.0;3.93;34.17
20.0;4.15;38.47
