GRAND_ID: 5150
DAM_NAME: 103.453125
LONG: 103.453125
LAT: 16.603534
Depth(m);Area(km2);Volume(mcm)
0.0;0.0;0.0
1.0;18.63;21.11
2.0;28.59;52.19
3.0;39.95;94.62
4.0;48.2;145.31
5.0;66.5;214.29
6.0;84.48;301.26
7.0;117.91;421.65
8.0;145.11;569.25
9.0;183.5;755.24
10.0;212.5;970.22
11.0;256.32;1229.02
12.0;287.96;1519.47
13.0;329.67;1851.62
14.0;353.94;2208.05
15.0;378.42;2588.95
16.0;391.97;2983.41
17.0;404.37;3390.26
