GRAND_ID: 5158
DAM_NAME: 99.656075
LONG: 99.656075
LAT: 14.835896
Depth(m);Area(km2);Volume(mcm)
0.0;0.0;0.0
1.0;1.51;1.78
2.0;3.15;5.21
3.0;4.81;10.29
4.0;6.8;17.36
5.0;8.82;26.45
6.0;11.95;38.68
7.0;14.41;53.36
8.0;17.66;71.3
9.0;20.68;92.25
10.0;25.24;117.76
11.0;28.21;146.24
12.0;30.74;177.26
13.0;32.79;210.32
14.0;36.11;246.7
15.0;38.07;285.04
16.0;39.77;325.07
17.0;40.68;366.03
