GRAND_ID: 5164
DAM_NAME: 99.60925
LONG: 99.60925
LAT: 13.50625
Depth(m);Area(km2);Volume(mcm)
0.0;0.0;0.0
1.0;0.14;0.31
2.0;0.33;0.82
3.0;0.51;1.5
4.0;0.84;2.51
5.0;1.52;4.2
6.0;2.57;6.95
7.0;3.49;10.61
8.0;4.22;15.01
9.0;4.63;19.82
10.0;5.02;25.01
11.0;5.29;30.48
12.0;5.58;36.23
13.0;5.74;42.14
