GRAND_ID: 5163
DAM_NAME: 99.234487
LONG: 99.234487
LAT: 14.235406
Depth(m);Area(km2);Volume(mcm)
0.0;0.0;0.0
1.0;0.07;0.21
2.0;0.16;0.5
3.0;0.3;0.94
4.0;0.5;1.58
5.0;0.68;2.4
6.0;0.9;3.44
7.0;1.24;4.83
8.0;1.5;6.46
9.0;1.87;8.47
10.0;2.23;10.84
11.0;2.86;13.84
12.0;3.51;17.5
13.0;4.21;21.85
14.0;4.55;26.54
15.0;4.82;31.51
