GRAND_ID: 5176
DAM_NAME: 101.751233
LONG: 101.751233
LAT: 3.23672
Depth(m);Area(km2);Volume(mcm)
0.0;0.0;0.0
1.0;0.06;0.17
2.0;0.09;0.39
3.0;0.18;0.69
4.0;0.28;1.09
5.0;0.4;1.61
6.0;0.48;2.21
7.0;0.6;2.93
8.0;0.72;3.77
9.0;0.87;4.76
10.0;0.99;5.87
11.0;1.11;7.09
12.0;1.2;8.41
13.0;1.33;9.86
14.0;1.44;11.41
15.0;1.53;13.06
16.0;1.62;14.8
17.0;1.72;16.64
18.0;1.8;18.56
19.0;1.89;20.56
