GRAND_ID: 5171
DAM_NAME: 101.210151
LONG: 101.210151
LAT: 5.429853
Depth(m);Area(km2);Volume(mcm)
0.0;0.0;0.0
1.0;0.11;0.31
2.0;0.32;0.83
3.0;0.5;1.52
4.0;0.84;2.56
5.0;1.28;4.04
6.0;1.91;6.15
7.0;2.42;8.76
8.0;3.07;12.03
9.0;3.48;15.71
10.0;3.99;19.9
11.0;4.39;24.5
12.0;4.84;29.53
13.0;5.15;34.89
14.0;5.52;40.6
15.0;5.78;46.59
