GRAND_ID: 5198
DAM_NAME: 117.2982
LONG: 117.2982
LAT: 40.18125
Depth(m);Area(km2);Volume(mcm)
0.0;0.0;0.0
1.0;0.32;0.57
2.0;0.57;1.39
3.0;0.81;2.45
4.0;1.2;3.91
5.0;1.54;5.7
6.0;1.89;7.84
7.0;2.26;10.35
8.0;2.7;13.3
9.0;3.26;16.82
10.0;3.81;20.88
11.0;4.15;25.28
12.0;4.46;29.99
13.0;4.69;34.93
14.0;4.94;40.12
15.0;5.14;45.51
16.0;5.4;51.16
17.0;5.58;56.99
18.0;5.82;63.06
