GRAND_ID: 5193
DAM_NAME: 116.612972
LONG: 116.612972
LAT: 40.308087
Depth(m);Area(km2);Volume(mcm)
0.0;0.0;0.0
1.0;0.14;0.31
2.0;0.24;0.73
3.0;0.34;1.24
4.0;0.43;1.84
5.0;0.55;2.55
6.0;0.68;3.4
7.0;0.87;4.44
8.0;1.19;5.8
9.0;1.76;7.73
10.0;2.35;10.25
11.0;3.15;13.56
12.0;4.25;17.98
13.0;5.24;23.38
14.0;6.0;29.55
15.0;6.46;36.18
16.0;6.71;43.05
