GRAND_ID: 5212
DAM_NAME: 114.37103
LONG: 114.37103
LAT: 38.61234
Depth(m);Area(km2);Volume(mcm)
0.0;0.0;0.0
1.0;0.2;0.3
2.0;0.33;0.74
3.0;0.55;1.39
4.0;0.72;2.2
5.0;0.99;3.3
6.0;1.22;4.62
7.0;1.6;6.33
8.0;1.83;8.26
9.0;2.12;10.48
10.0;2.35;12.93
11.0;2.68;15.71
12.0;2.98;18.8
13.0;3.54;22.43
14.0;4.05;26.58
15.0;4.66;31.35
16.0;5.03;36.48
17.0;5.38;41.96
18.0;5.52;47.58
