GRAND_ID: 5234
DAM_NAME: 117.579409
LONG: 117.579409
LAT: 36.404014
Depth(m);Area(km2);Volume(mcm)
0.0;0.0;0.0
1.0;0.13;0.29
2.0;0.28;0.73
3.0;0.6;1.5
4.0;0.93;2.59
5.0;1.57;4.32
6.0;2.07;6.55
7.0;2.74;9.45
8.0;3.14;12.75
9.0;3.7;16.62
10.0;4.16;20.94
11.0;4.75;25.84
12.0;5.18;31.18
13.0;5.81;37.15
14.0;6.21;43.52
15.0;6.69;50.37
16.0;6.96;57.49
17.0;7.25;64.9
18.0;7.41;72.47
19.0;7.56;80.19
20.0;7.65;88.0
