GRAND_ID: 5242
DAM_NAME: 106.265649
LONG: 106.265649
LAT: 36.104343
Depth(m);Area(km2);Volume(mcm)
0.0;0.0;0.0
1.0;0.15;0.26
2.0;0.27;0.65
3.0;0.38;1.15
4.0;0.57;1.84
5.0;0.72;2.68
6.0;0.91;3.7
7.0;1.08;4.89
8.0;1.24;6.25
9.0;1.37;7.73
10.0;1.53;9.38
11.0;1.79;11.28
12.0;2.04;13.43
13.0;2.35;15.9
14.0;2.45;18.46
15.0;2.51;21.09
