GRAND_ID: 5258
DAM_NAME: 117.189858
LONG: 117.189858
LAT: 35.477648
Depth(m);Area(km2);Volume(mcm)
0.0;0.0;0.0
1.0;0.14;0.27
2.0;1.08;1.49
3.0;1.72;3.35
4.0;2.52;6.01
5.0;3.24;9.38
6.0;4.43;13.95
7.0;5.28;19.36
8.0;6.33;25.83
9.0;7.02;32.98
10.0;7.58;40.69
11.0;7.93;48.75
12.0;8.17;57.05
