GRAND_ID: 5251
DAM_NAME: 118.982218
LONG: 118.982218
LAT: 35.739248
Depth(m);Area(km2);Volume(mcm)
0.0;0.0;0.0
1.0;0.52;0.95
2.0;1.37;2.75
3.0;2.36;5.54
4.0;3.96;9.93
5.0;4.85;15.21
6.0;5.98;21.62
7.0;6.82;28.87
8.0;7.95;37.25
9.0;8.68;46.36
10.0;9.5;56.29
11.0;9.88;66.61
12.0;10.27;77.31
