GRAND_ID: 5268
DAM_NAME: 117.826547
LONG: 117.826547
LAT: 34.897917
Depth(m);Area(km2);Volume(mcm)
0.0;0.0;0.0
1.0;1.02;1.38
2.0;2.32;4.05
3.0;3.79;8.2
4.0;5.34;13.89
5.0;7.18;21.42
6.0;9.22;31.0
7.0;10.65;42.01
8.0;12.1;54.46
9.0;13.11;67.93
10.0;14.16;82.44
11.0;15.02;97.82
12.0;16.1;114.27
