GRAND_ID: 5260
DAM_NAME: 117.555075
LONG: 117.555075
LAT: 35.427489
Depth(m);Area(km2);Volume(mcm)
0.0;0.0;0.0
1.0;0.17;0.32
2.0;0.42;0.9
3.0;1.38;2.44
4.0;2.23;4.82
5.0;3.19;8.17
6.0;3.77;12.1
7.0;4.61;16.87
8.0;5.26;22.28
9.0;6.14;28.57
10.0;6.64;35.37
11.0;7.76;43.29
12.0;8.38;51.83
13.0;9.19;61.17
14.0;9.71;71.03
