GRAND_ID: 5264
DAM_NAME: 117.213705
LONG: 117.213705
LAT: 35.211764
Depth(m);Area(km2);Volume(mcm)
0.0;0.0;0.0
1.0;0.35;0.46
2.0;1.15;1.73
3.0;2.5;4.34
4.0;3.85;8.31
5.0;4.87;13.3
6.0;5.66;19.07
7.0;6.78;25.97
8.0;7.48;33.57
9.0;8.23;41.91
10.0;8.77;50.8
11.0;9.22;60.14
12.0;9.47;69.73
13.0;9.7;79.55
