GRAND_ID: 5288
DAM_NAME: 113.239135
LONG: 113.239135
LAT: 33.710725
Depth(m);Area(km2);Volume(mcm)
0.0;0.0;0.0
1.0;1.01;1.22
2.0;2.3;3.73
3.0;4.21;8.14
4.0;5.84;14.19
5.0;8.11;22.51
6.0;10.48;33.19
7.0;15.16;48.56
8.0;20.67;69.44
9.0;27.85;97.5
10.0;32.64;130.34
11.0;37.62;168.16
12.0;40.31;208.68
13.0;42.39;251.28
14.0;43.52;295.0
15.0;44.36;339.57
16.0;44.9;384.68
