GRAND_ID: 5291
DAM_NAME: 113.552083
LONG: 113.552083
LAT: 33.280408
Depth(m);Area(km2);Volume(mcm)
0.0;0.0;0.0
1.0;0.15;0.41
2.0;0.29;0.95
3.0;0.38;1.59
4.0;0.51;2.35
5.0;0.77;3.38
6.0;1.13;4.76
7.0;1.43;6.45
8.0;1.81;8.52
9.0;2.4;11.17
10.0;3.74;15.17
11.0;5.1;20.53
12.0;6.34;27.12
13.0;7.03;34.41
14.0;7.81;42.47
15.0;8.39;51.12
16.0;8.99;60.36
17.0;9.33;69.95
18.0;9.54;79.75
