GRAND_ID: 5300
DAM_NAME: 113.486093
LONG: 113.486093
LAT: 32.762237
Depth(m);Area(km2);Volume(mcm)
0.0;0.0;0.0
1.0;0.43;0.53
2.0;1.26;1.89
3.0;1.89;3.88
4.0;2.6;6.59
5.0;3.5;10.19
6.0;5.38;15.67
7.0;6.28;22.06
8.0;7.5;29.65
9.0;8.51;38.27
10.0;9.78;48.15
11.0;10.58;58.83
12.0;11.4;70.34
13.0;11.97;82.41
