GRAND_ID: 5303
DAM_NAME: 118.128495
LONG: 118.128495
LAT: 32.65625
Depth(m);Area(km2);Volume(mcm)
0.0;0.0;0.0
1.0;0.1;0.27
2.0;0.19;0.63
3.0;0.33;1.13
4.0;0.5;1.8
5.0;0.76;2.73
6.0;1.09;3.99
7.0;1.55;5.71
8.0;2.09;7.97
9.0;2.74;10.88
10.0;3.19;14.23
11.0;3.63;18.03
12.0;3.89;22.1
