GRAND_ID: 5308
DAM_NAME: 110.955723
LONG: 110.955723
LAT: 32.502574
Depth(m);Area(km2);Volume(mcm)
0.0;0.0;0.0
1.0;0.03;0.14
2.0;0.06;0.32
3.0;0.09;0.53
4.0;0.14;0.79
5.0;0.2;1.1
6.0;0.25;1.47
7.0;0.29;1.87
8.0;0.32;2.3
9.0;0.36;2.78
10.0;0.38;3.27
11.0;0.41;3.8
12.0;0.42;4.33
