GRAND_ID: 5309
DAM_NAME: 111.702159
LONG: 111.702159
LAT: 32.494477
Depth(m);Area(km2);Volume(mcm)
0.0;0.0;0.0
1.0;0.24;0.55
2.0;0.49;1.35
3.0;0.88;2.55
4.0;1.26;4.12
5.0;1.77;6.21
6.0;2.22;8.74
7.0;2.78;11.83
8.0;3.32;15.47
9.0;4.23;20.02
10.0;5.18;25.52
11.0;6.53;32.36
12.0;7.73;40.41
13.0;9.1;49.82
