GRAND_ID: 5314
DAM_NAME: 111.939583
LONG: 111.939583
LAT: 32.36633
Depth(m);Area(km2);Volume(mcm)
0.0;0.0;0.0
1.0;0.37;0.62
2.0;1.0;1.86
3.0;1.61;3.72
4.0;2.42;6.38
5.0;3.21;9.83
6.0;4.64;14.71
7.0;6.09;21.04
8.0;8.36;29.64
9.0;9.57;39.46
10.0;11.61;51.31
11.0;15.17;66.72
12.0;19.61;86.57
13.0;22.96;109.78
