GRAND_ID: 5318
DAM_NAME: 118.103125
LONG: 118.103125
LAT: 32.194705
Depth(m);Area(km2);Volume(mcm)
0.0;0.0;0.0
1.0;0.16;0.28
2.0;0.59;0.98
3.0;1.3;2.39
4.0;2.39;4.89
5.0;3.26;8.26
6.0;4.25;12.63
7.0;5.1;17.84
8.0;5.93;23.88
9.0;7.02;31.02
10.0;8.26;39.39
11.0;9.62;49.13
12.0;11.27;60.51
13.0;12.79;73.41
14.0;14.22;87.75
15.0;15.5;103.36
16.0;16.37;119.84
17.0;16.95;136.9
