GRAND_ID: 5317
DAM_NAME: 113.01468
LONG: 113.01468
LAT: 32.243638
Depth(m);Area(km2);Volume(mcm)
0.0;0.0;0.0
1.0;0.03;0.14
2.0;0.07;0.33
3.0;0.12;0.56
4.0;0.19;0.86
5.0;0.23;1.19
6.0;0.32;1.63
7.0;0.41;2.15
8.0;0.5;2.76
9.0;0.57;3.44
10.0;0.7;4.25
11.0;0.83;5.2
12.0;1.17;6.47
13.0;1.44;8.03
14.0;1.97;10.11
15.0;2.3;12.52
16.0;2.62;15.25
17.0;2.83;18.19
18.0;3.04;21.35
19.0;3.19;24.64
20.0;3.32;28.07
21.0;3.38;31.56
22.0;3.44;35.11
