GRAND_ID: 5322
DAM_NAME: 113.465951
LONG: 113.465951
LAT: 32.140629
Depth(m);Area(km2);Volume(mcm)
0.0;0.0;0.0
1.0;0.06;0.2
2.0;0.17;0.51
3.0;0.29;0.93
4.0;0.39;1.46
5.0;0.49;2.08
6.0;0.66;2.87
7.0;0.85;3.85
8.0;1.23;5.22
9.0;1.5;6.85
10.0;1.97;8.95
11.0;2.23;11.32
12.0;2.65;14.1
13.0;2.86;17.1
14.0;3.27;20.51
15.0;3.54;24.18
16.0;3.87;28.18
17.0;4.15;32.47
18.0;4.54;37.15
