GRAND_ID: 5327
DAM_NAME: 112.923518
LONG: 112.923518
LAT: 32.06877
Depth(m);Area(km2);Volume(mcm)
0.0;0.0;0.0
1.0;0.14;0.31
2.0;0.27;0.75
3.0;0.48;1.39
4.0;0.65;2.21
5.0;0.98;3.36
6.0;1.2;4.73
7.0;1.51;6.4
8.0;1.73;8.3
9.0;2.19;10.66
10.0;2.87;13.69
11.0;4.67;18.53
12.0;5.75;24.45
13.0;7.27;31.89
14.0;8.09;40.15
15.0;8.9;49.22
16.0;9.31;58.69
