GRAND_ID: 5321
DAM_NAME: 113.102504
LONG: 113.102504
LAT: 32.149232
Depth(m);Area(km2);Volume(mcm)
0.0;0.0;0.0
1.0;0.22;0.43
2.0;0.72;1.35
3.0;0.95;2.52
4.0;1.25;3.97
5.0;1.51;5.69
6.0;1.85;7.76
7.0;2.1;10.07
8.0;2.53;12.81
9.0;3.07;16.09
10.0;4.01;20.3
11.0;4.54;25.05
12.0;5.21;30.47
13.0;5.6;36.28
14.0;6.06;42.55
