GRAND_ID: 5336
DAM_NAME: 112.653683
LONG: 112.653683
LAT: 31.929459
Depth(m);Area(km2);Volume(mcm)
0.0;0.0;0.0
1.0;0.43;0.71
2.0;1.33;2.32
3.0;2.2;4.79
4.0;3.2;8.26
5.0;3.98;12.52
6.0;5.01;17.8
7.0;5.89;23.97
8.0;6.78;31.02
9.0;7.5;38.79
10.0;8.77;47.83
11.0;9.77;57.88
12.0;10.97;69.13
13.0;11.98;81.38
14.0;13.04;94.7
15.0;14.13;109.1
