GRAND_ID: 5340
DAM_NAME: 117.204958
LONG: 117.204958
LAT: 31.889463
Depth(m);Area(km2);Volume(mcm)
0.0;0.0;0.0
1.0;0.15;0.26
2.0;0.3;0.67
3.0;0.79;1.57
4.0;1.61;3.28
5.0;2.71;6.1
6.0;3.74;9.95
7.0;5.26;15.32
8.0;7.95;23.37
9.0;11.19;34.67
10.0;14.15;48.93
11.0;16.89;65.93
12.0;18.86;84.9
13.0;20.04;105.04
