GRAND_ID: 5343
DAM_NAME: 113.126682
LONG: 113.126682
LAT: 31.864975
Depth(m);Area(km2);Volume(mcm)
0.0;0.0;0.0
1.0;0.1;0.23
2.0;0.23;0.58
3.0;0.4;1.11
4.0;0.7;1.94
5.0;1.2;3.27
6.0;1.81;5.2
7.0;2.32;7.65
8.0;3.08;10.86
9.0;3.78;14.77
10.0;4.52;19.41
11.0;5.08;24.62
12.0;5.62;30.37
13.0;6.07;36.56
14.0;6.46;43.16
15.0;6.75;50.04
16.0;6.99;57.16
