GRAND_ID: 5348
DAM_NAME: 113.527083
LONG: 113.527083
LAT: 31.794337
Depth(m);Area(km2);Volume(mcm)
0.0;0.0;0.0
1.0;0.33;0.64
2.0;0.62;1.56
3.0;1.06;2.93
4.0;1.49;4.73
5.0;2.02;7.06
6.0;2.59;9.95
7.0;3.54;13.81
8.0;4.78;18.89
9.0;6.45;25.65
10.0;7.89;33.85
11.0;9.19;43.35
12.0;10.12;53.78
13.0;11.17;65.26
14.0;11.94;77.51
15.0;12.7;90.52
16.0;13.2;104.02
17.0;13.59;117.93
18.0;13.83;132.06
