GRAND_ID: 5344
DAM_NAME: 114.654862
LONG: 114.654862
LAT: 31.856901
Depth(m);Area(km2);Volume(mcm)
0.0;0.0;0.0
1.0;0.28;0.57
2.0;0.86;1.73
3.0;1.36;3.38
4.0;1.91;5.58
5.0;2.46;8.34
6.0;3.71;12.34
7.0;4.88;17.5
8.0;6.19;23.98
9.0;7.1;31.37
10.0;8.15;39.81
11.0;8.98;49.08
12.0;9.68;59.05
