GRAND_ID: 5353
DAM_NAME: 112.594473
LONG: 112.594473
LAT: 31.739103
Depth(m);Area(km2);Volume(mcm)
0.0;0.0;0.0
1.0;0.1;0.29
2.0;0.35;0.84
3.0;0.5;1.53
4.0;0.66;2.38
5.0;0.8;3.37
6.0;1.02;4.57
7.0;1.27;6.03
8.0;1.65;7.87
9.0;2.06;10.12
10.0;2.69;13.0
11.0;3.32;16.51
12.0;4.45;21.14
13.0;5.49;26.82
14.0;7.16;34.17
15.0;8.21;42.58
