GRAND_ID: 5369
DAM_NAME: 112.025654
LONG: 112.025654
LAT: 31.388122
Depth(m);Area(km2);Volume(mcm)
0.0;0.0;0.0
1.0;0.02;0.12
2.0;0.09;0.31
3.0;0.13;0.55
4.0;0.21;0.86
5.0;0.28;1.25
6.0;0.43;1.78
7.0;0.54;2.42
8.0;0.69;3.22
9.0;0.77;4.09
10.0;0.89;5.08
11.0;0.96;6.14
12.0;1.08;7.33
13.0;1.14;8.57
14.0;1.22;9.89
15.0;1.26;11.26
16.0;1.32;12.67
