GRAND_ID: 5363
DAM_NAME: 114.762948
LONG: 114.762948
LAT: 31.497346
Depth(m);Area(km2);Volume(mcm)
0.0;0.0;0.0
1.0;0.06;0.17
2.0;0.1;0.4
3.0;0.14;0.66
4.0;0.18;0.95
5.0;0.27;1.34
6.0;0.37;1.83
7.0;0.58;2.53
8.0;0.81;3.46
9.0;1.15;4.73
10.0;1.41;6.26
11.0;1.81;8.19
12.0;2.09;10.4
13.0;2.36;12.87
14.0;2.56;15.55
15.0;2.74;18.42
