GRAND_ID: 5366
DAM_NAME: 112.664587
LONG: 112.664587
LAT: 31.447921
Depth(m);Area(km2);Volume(mcm)
0.0;0.0;0.0
1.0;0.2;0.34
2.0;0.51;1.0
3.0;1.03;2.17
4.0;1.43;3.74
5.0;1.95;5.84
6.0;2.73;8.72
7.0;4.11;12.98
8.0;5.48;18.61
9.0;6.8;25.56
10.0;7.84;33.55
11.0;9.14;42.84
12.0;10.35;53.33
