GRAND_ID: 5376
DAM_NAME: 119.438859
LONG: 119.438859
LAT: 31.317156
Depth(m);Area(km2);Volume(mcm)
0.0;0.0;0.0
1.0;0.76;1.16
2.0;1.85;3.41
3.0;2.87;6.67
4.0;3.88;10.95
5.0;4.65;16.0
6.0;5.56;21.96
7.0;6.31;28.67
8.0;7.44;36.51
9.0;8.68;45.58
10.0;9.61;55.59
11.0;10.42;66.4
12.0;11.19;77.98
13.0;11.67;90.05
14.0;12.09;102.54
15.0;12.38;115.32
16.0;12.59;128.31
