GRAND_ID: 5379
DAM_NAME: 114.588808
LONG: 114.588808
LAT: 31.286488
Depth(m);Area(km2);Volume(mcm)
0.0;0.0;0.0
1.0;0.26;0.6
2.0;0.53;1.46
3.0;1.02;2.81
4.0;1.52;4.66
5.0;1.95;6.95
6.0;2.28;9.57
7.0;2.7;12.6
8.0;3.08;16.02
9.0;3.58;19.93
10.0;4.42;24.69
11.0;5.69;30.71
12.0;6.85;37.9
13.0;8.09;46.32
14.0;9.2;55.85
15.0;10.52;66.7
16.0;11.66;78.69
17.0;12.9;91.93
18.0;13.77;106.03
19.0;14.55;120.91
20.0;15.06;136.3
