GRAND_ID: 5384
DAM_NAME: 112.409689
LONG: 112.409689
LAT: 31.198226
Depth(m);Area(km2);Volume(mcm)
0.0;0.0;0.0
1.0;0.02;0.15
2.0;0.03;0.32
3.0;0.07;0.53
4.0;0.11;0.77
5.0;0.15;1.06
6.0;0.19;1.38
7.0;0.24;1.76
8.0;0.28;2.17
9.0;0.33;2.63
10.0;0.44;3.21
11.0;0.58;3.92
12.0;0.69;4.75
13.0;0.82;5.7
14.0;0.95;6.79
15.0;1.07;8.0
16.0;1.16;9.29
17.0;1.24;10.67
18.0;1.32;12.12
19.0;1.38;13.63
20.0;1.43;15.19
