GRAND_ID: 5395
DAM_NAME: 114.465124
LONG: 114.465124
LAT: 31.057741
Depth(m);Area(km2);Volume(mcm)
0.0;0.0;0.0
1.0;0.24;0.52
2.0;0.82;1.62
3.0;1.51;3.41
4.0;2.53;6.22
5.0;3.67;10.17
6.0;5.7;16.15
7.0;7.41;23.84
8.0;8.96;33.08
9.0;10.46;43.82
10.0;11.79;55.9
11.0;13.28;69.46
12.0;14.68;84.41
13.0;16.32;101.01
14.0;18.11;119.4
15.0;19.86;139.54
16.0;21.64;161.47
17.0;23.33;185.08
18.0;24.74;210.1
19.0;26.15;236.53
20.0;27.25;264.07
