GRAND_ID: 5403
DAM_NAME: 112.878192
LONG: 112.878192
LAT: 30.944837
Depth(m);Area(km2);Volume(mcm)
0.0;0.0;0.0
1.0;0.14;0.27
2.0;0.37;0.76
3.0;0.56;1.44
4.0;0.78;2.35
5.0;1.07;3.54
6.0;1.32;4.98
7.0;1.67;6.77
8.0;2.15;9.04
9.0;2.55;11.72
10.0;2.97;14.81
11.0;3.4;18.34
12.0;3.91;22.38
13.0;4.43;26.93
14.0;4.81;31.87
15.0;5.22;37.21
16.0;5.45;42.79
17.0;5.6;48.52
18.0;5.68;54.32
