GRAND_ID: 5413
DAM_NAME: 119.431465
LONG: 119.431465
LAT: 30.805548
Depth(m);Area(km2);Volume(mcm)
0.0;0.0;0.0
1.0;0.08;0.23
2.0;0.17;0.55
3.0;0.31;1.02
4.0;0.5;1.66
5.0;0.71;2.53
6.0;0.93;3.61
7.0;1.15;4.92
8.0;1.37;6.44
9.0;1.59;8.18
10.0;1.76;10.1
11.0;1.98;12.24
12.0;2.18;14.57
13.0;2.37;17.1
14.0;2.54;19.79
15.0;2.69;22.64
16.0;2.76;25.55
17.0;2.82;28.53
18.0;2.86;31.54
19.0;2.89;34.58
