GRAND_ID: 5419
DAM_NAME: 115.048958
LONG: 115.048958
LAT: 30.732969
Depth(m);Area(km2);Volume(mcm)
0.0;0.0;0.0
1.0;0.12;0.22
2.0;0.23;0.56
3.0;0.37;1.04
4.0;0.57;1.72
5.0;0.97;2.79
6.0;1.26;4.15
7.0;1.49;5.75
8.0;1.7;7.55
9.0;1.95;9.61
10.0;2.22;11.94
11.0;2.52;14.56
12.0;2.87;17.54
13.0;3.25;20.9
14.0;3.65;24.65
15.0;4.06;28.83
16.0;4.39;33.32
17.0;4.79;38.21
18.0;5.12;43.44
19.0;5.45;49.0
20.0;5.77;54.88
21.0;6.1;61.09
22.0;6.39;67.59
