GRAND_ID: 5425
DAM_NAME: 119.496746
LONG: 119.496746
LAT: 30.631225
Depth(m);Area(km2);Volume(mcm)
0.0;0.0;0.0
1.0;0.06;0.18
2.0;0.12;0.43
3.0;0.18;0.73
4.0;0.29;1.15
5.0;0.41;1.68
6.0;0.63;2.44
7.0;0.91;3.47
8.0;1.26;4.85
9.0;1.57;6.55
10.0;1.94;8.61
11.0;2.45;11.19
12.0;2.97;14.28
13.0;3.33;17.73
14.0;3.79;21.65
15.0;4.19;25.96
16.0;4.7;30.78
17.0;5.14;36.05
18.0;5.64;41.82
19.0;6.02;47.97
20.0;6.48;54.57
21.0;6.86;61.56
