GRAND_ID: 5432
DAM_NAME: 119.47289
LONG: 119.47289
LAT: 30.539557
Depth(m);Area(km2);Volume(mcm)
0.0;0.0;0.0
1.0;0.11;0.27
2.0;0.28;0.7
3.0;0.51;1.37
4.0;0.82;2.34
5.0;1.11;3.6
6.0;1.37;5.12
7.0;1.55;6.82
8.0;1.8;8.78
9.0;2.03;10.97
10.0;2.25;13.37
11.0;2.47;15.99
12.0;2.75;18.9
13.0;2.97;22.02
14.0;3.22;25.39
15.0;3.45;29.0
16.0;3.73;32.88
17.0;3.95;36.98
18.0;4.2;41.33
19.0;4.41;45.9
