GRAND_ID: 5439
DAM_NAME: 115.663542
LONG: 115.663542
LAT: 30.453201
Depth(m);Area(km2);Volume(mcm)
0.0;0.0;0.0
1.0;0.08;0.26
2.0;0.25;0.68
3.0;0.39;1.24
4.0;0.6;2.02
5.0;0.85;3.04
6.0;1.18;4.39
7.0;1.37;5.94
8.0;1.62;7.73
9.0;1.8;9.7
10.0;2.02;11.89
11.0;2.18;14.24
12.0;2.36;16.78
13.0;2.51;19.46
14.0;2.68;22.32
15.0;2.85;25.34
16.0;3.04;28.56
17.0;3.2;31.94
18.0;3.39;35.5
19.0;3.53;39.2
20.0;3.71;43.08
