GRAND_ID: 5449
DAM_NAME: 115.985417
LONG: 115.985417
LAT: 30.227083
Depth(m);Area(km2);Volume(mcm)
0.0;0.0;0.0
1.0;0.16;0.29
2.0;0.27;0.69
3.0;0.38;1.21
4.0;0.51;1.86
5.0;0.68;2.69
6.0;0.85;3.68
7.0;1.06;4.87
8.0;1.25;6.26
9.0;1.46;7.85
10.0;1.64;9.63
11.0;1.79;11.55
12.0;1.91;13.6
13.0;2.04;15.77
14.0;2.15;18.06
15.0;2.28;20.48
16.0;2.4;23.02
17.0;2.5;25.66
18.0;2.57;28.37
