GRAND_ID: 5454
DAM_NAME: 111.594792
LONG: 111.594792
LAT: 30.140519
Depth(m);Area(km2);Volume(mcm)
0.0;0.0;0.0
1.0;0.11;0.25
2.0;0.25;0.64
3.0;0.35;1.12
4.0;0.49;1.75
5.0;0.65;2.54
6.0;0.81;3.49
7.0;0.93;4.56
8.0;1.18;5.88
9.0;1.59;7.61
10.0;2.11;9.86
11.0;2.57;12.56
12.0;3.06;15.76
13.0;3.48;19.38
14.0;3.89;23.4
15.0;4.17;27.71
