GRAND_ID: 5466
DAM_NAME: 111.507333
LONG: 111.507333
LAT: 29.886399
Depth(m);Area(km2);Volume(mcm)
0.0;0.0;0.0
1.0;0.15;0.31
2.0;0.29;0.75
3.0;0.5;1.4
4.0;0.68;2.24
5.0;0.9;3.3
6.0;1.09;4.55
7.0;1.43;6.13
8.0;1.7;7.99
9.0;2.02;10.16
10.0;2.21;12.53
11.0;2.47;15.15
12.0;2.64;17.95
13.0;2.91;21.02
14.0;3.11;24.29
15.0;3.42;27.86
16.0;3.65;31.66
17.0;3.91;35.73
18.0;4.11;40.0
19.0;4.36;44.51
