GRAND_ID: 5481
DAM_NAME: 116.910472
LONG: 116.910472
LAT: 29.586651
Depth(m);Area(km2);Volume(mcm)
0.0;0.0;0.0
1.0;0.07;0.18
2.0;0.24;0.53
3.0;0.5;1.14
4.0;0.77;2.02
5.0;1.14;3.27
6.0;1.43;4.82
7.0;1.67;6.6
8.0;1.94;8.65
9.0;2.19;10.96
10.0;2.46;13.53
11.0;2.75;16.39
12.0;3.18;19.68
13.0;3.72;23.51
14.0;4.33;27.96
15.0;4.97;33.04
16.0;5.52;38.68
17.0;5.98;44.78
18.0;6.6;51.49
19.0;7.05;58.65
20.0;7.47;66.24
