GRAND_ID: 5487
DAM_NAME: 119.843456
LONG: 119.843456
LAT: 29.451533
Depth(m);Area(km2);Volume(mcm)
0.0;0.0;0.0
1.0;0.14;0.3
2.0;0.24;0.7
3.0;0.33;1.18
4.0;0.42;1.76
5.0;0.53;2.45
6.0;0.73;3.34
7.0;0.91;4.4
8.0;1.09;5.64
9.0;1.25;7.05
10.0;1.42;8.63
11.0;1.56;10.35
12.0;1.77;12.27
13.0;2.01;14.44
14.0;2.27;16.86
15.0;2.47;19.49
16.0;2.77;22.42
17.0;3.09;25.67
18.0;3.34;29.17
19.0;3.52;32.85
20.0;3.71;36.72
