GRAND_ID: 5489
DAM_NAME: 111.376655
LONG: 111.376655
LAT: 29.417842
Depth(m);Area(km2);Volume(mcm)
0.0;0.0;0.0
1.0;0.04;0.17
2.0;0.07;0.38
3.0;0.13;0.64
4.0;0.2;0.97
5.0;0.3;1.4
6.0;0.41;1.95
7.0;0.53;2.61
8.0;0.64;3.38
9.0;0.77;4.29
10.0;0.9;5.32
11.0;1.11;6.56
12.0;1.41;8.11
13.0;1.68;9.92
14.0;1.9;11.96
15.0;2.18;14.27
16.0;2.41;16.81
17.0;2.71;19.66
18.0;3.0;22.79
19.0;3.32;26.25
20.0;3.58;29.97
21.0;3.88;33.98
22.0;4.13;38.25
