GRAND_ID: 5496
DAM_NAME: 105.236458
LONG: 105.236458
LAT: 29.332503
Depth(m);Area(km2);Volume(mcm)
0.0;0.0;0.0
1.0;0.03;0.17
2.0;0.09;0.41
3.0;0.12;0.68
4.0;0.23;1.06
5.0;0.28;1.49
6.0;0.4;2.04
7.0;0.5;2.69
8.0;0.75;3.59
9.0;1.07;4.8
10.0;1.61;6.56
11.0;2.03;8.74
12.0;2.62;11.51
13.0;2.9;14.56
14.0;3.4;18.1
15.0;3.7;21.95
16.0;4.23;26.32
