GRAND_ID: 5508
DAM_NAME: 117.382073
LONG: 117.382073
LAT: 29.135368
Depth(m);Area(km2);Volume(mcm)
0.0;0.0;0.0
1.0;0.22;0.34
2.0;0.46;0.93
3.0;0.82;1.87
4.0;1.29;3.28
5.0;1.99;5.4
6.0;2.55;8.08
7.0;3.12;11.33
8.0;3.62;15.07
9.0;4.06;19.26
10.0;4.57;23.95
11.0;5.22;29.3
12.0;5.88;35.3
13.0;6.64;42.07
14.0;7.36;49.56
15.0;8.21;57.89
16.0;8.89;66.91
17.0;9.51;76.54
18.0;9.99;86.65
19.0;10.44;97.21
20.0;10.79;108.13
