GRAND_ID: 5521
DAM_NAME: 119.893583
LONG: 119.893583
LAT: 28.834953
Depth(m);Area(km2);Volume(mcm)
0.0;0.0;0.0
1.0;0.05;0.2
2.0;0.08;0.44
3.0;0.13;0.73
4.0;0.19;1.06
5.0;0.23;1.44
6.0;0.27;1.86
7.0;0.3;2.32
8.0;0.34;2.82
9.0;0.37;3.35
10.0;0.41;3.91
11.0;0.44;4.51
12.0;0.46;5.13
13.0;0.5;5.78
14.0;0.51;6.44
15.0;0.54;7.13
16.0;0.55;7.84
17.0;0.58;8.57
18.0;0.59;9.31
19.0;0.61;10.07
