GRAND_ID: 5530
DAM_NAME: 118.105729
LONG: 118.105729
LAT: 28.691223
Depth(m);Area(km2);Volume(mcm)
0.0;0.0;0.0
1.0;0.04;0.15
2.0;0.06;0.32
3.0;0.09;0.53
4.0;0.12;0.76
5.0;0.17;1.04
6.0;0.27;1.43
7.0;0.44;1.98
8.0;0.63;2.72
9.0;0.88;3.71
10.0;1.02;4.85
11.0;1.17;6.13
12.0;1.3;7.53
13.0;1.42;9.07
14.0;1.52;10.7
15.0;1.63;12.45
