GRAND_ID: 5545
DAM_NAME: 117.057506
LONG: 117.057506
LAT: 28.509998
Depth(m);Area(km2);Volume(mcm)
0.0;0.0;0.0
1.0;0.08;0.21
2.0;0.17;0.51
3.0;0.23;0.87
4.0;0.32;1.32
5.0;0.39;1.85
6.0;0.5;2.47
7.0;0.61;3.22
8.0;0.75;4.1
9.0;0.88;5.11
10.0;1.06;6.3
11.0;1.2;7.63
12.0;1.38;9.14
13.0;1.55;10.82
14.0;1.74;12.69
15.0;1.85;14.66
16.0;2.0;16.79
17.0;2.13;19.05
