GRAND_ID: 5550
DAM_NAME: 110.47834
LONG: 110.47834
LAT: 28.426134
Depth(m);Area(km2);Volume(mcm)
0.0;0.0;0.0
1.0;0.05;0.19
2.0;0.13;0.46
3.0;0.18;0.79
4.0;0.27;1.21
5.0;0.33;1.68
6.0;0.47;2.29
7.0;0.53;2.97
8.0;0.7;3.81
9.0;0.82;4.77
10.0;1.05;5.97
11.0;1.19;7.3
12.0;1.37;8.81
13.0;1.54;10.49
14.0;1.78;12.41
15.0;1.92;14.48
16.0;2.13;16.75
17.0;2.28;19.18
18.0;2.5;21.82
