GRAND_ID: 5565
DAM_NAME: 109.807228
LONG: 109.807228
LAT: 28.214438
Depth(m);Area(km2);Volume(mcm)
0.0;0.0;0.0
1.0;0.01;0.11
2.0;0.03;0.24
3.0;0.06;0.41
4.0;0.1;0.61
5.0;0.19;0.9
6.0;0.26;1.26
7.0;0.4;1.76
8.0;0.56;2.42
9.0;0.71;3.23
10.0;0.85;4.18
11.0;0.98;5.26
12.0;1.07;6.43
13.0;1.18;7.71
14.0;1.27;9.08
15.0;1.4;10.59
16.0;1.51;12.2
17.0;1.77;14.07
18.0;1.91;16.08
19.0;2.23;18.42
20.0;2.55;21.07
