GRAND_ID: 5575
DAM_NAME: 116.852549
LONG: 116.852549
LAT: 27.939477
Depth(m);Area(km2);Volume(mcm)
0.0;0.0;0.0
1.0;0.13;0.31
2.0;0.24;0.73
3.0;0.43;1.34
4.0;0.59;2.1
5.0;0.76;3.04
6.0;0.9;4.12
7.0;1.06;5.37
8.0;1.22;6.76
9.0;1.41;8.36
10.0;1.58;10.12
11.0;1.87;12.17
12.0;2.11;14.46
13.0;2.55;17.19
14.0;2.94;20.31
15.0;3.38;23.87
