GRAND_ID: 5573
DAM_NAME: 117.118151
LONG: 117.118151
LAT: 28.08763
Depth(m);Area(km2);Volume(mcm)
0.0;0.0;0.0
1.0;0.06;0.17
2.0;0.13;0.4
3.0;0.18;0.68
4.0;0.23;1.01
5.0;0.29;1.4
6.0;0.34;1.84
7.0;0.38;2.32
8.0;0.42;2.84
9.0;0.47;3.41
10.0;0.5;4.01
11.0;0.54;4.65
12.0;0.56;5.32
13.0;0.59;6.01
14.0;0.61;6.72
