GRAND_ID: 5585
DAM_NAME: 115.80625
LONG: 115.80625
LAT: 27.826926
Depth(m);Area(km2);Volume(mcm)
0.0;0.0;0.0
1.0;0.44;0.62
2.0;1.0;1.81
3.0;1.58;3.56
4.0;2.21;5.96
5.0;2.96;9.1
6.0;3.95;13.22
7.0;4.87;18.27
8.0;5.72;24.17
9.0;6.43;30.77
10.0;7.14;38.09
11.0;7.81;46.07
12.0;8.47;54.72
