GRAND_ID: 5584
DAM_NAME: 112.217101
LONG: 112.217101
LAT: 27.829291
Depth(m);Area(km2);Volume(mcm)
0.0;0.0;0.0
1.0;0.05;0.22
2.0;0.12;0.52
3.0;0.17;0.85
4.0;0.26;1.28
5.0;0.3;1.75
6.0;0.37;2.29
7.0;0.44;2.9
8.0;0.52;3.59
9.0;0.59;4.34
10.0;0.66;5.18
11.0;0.71;6.06
12.0;0.77;7.0
13.0;0.8;7.96
14.0;0.83;8.96
15.0;0.85;9.98
16.0;0.87;11.02
