GRAND_ID: 5613
DAM_NAME: 116.668193
LONG: 116.668193
LAT: 27.130721
Depth(m);Area(km2);Volume(mcm)
0.0;0.0;0.0
1.0;0.05;0.17
2.0;0.11;0.4
3.0;0.18;0.7
4.0;0.27;1.09
5.0;0.5;1.71
6.0;0.72;2.56
7.0;1.04;3.72
8.0;1.31;5.15
9.0;1.65;6.92
10.0;1.88;8.92
11.0;2.14;11.18
12.0;2.29;13.59
13.0;2.49;16.21
14.0;2.62;18.95
15.0;2.74;21.81
16.0;2.83;24.76
