GRAND_ID: 5618
DAM_NAME: 112.221875
LONG: 112.221875
LAT: 26.924686
Depth(m);Area(km2);Volume(mcm)
0.0;0.0;0.0
1.0;0.06;0.19
2.0;0.1;0.42
3.0;0.14;0.7
4.0;0.21;1.04
5.0;0.25;1.42
6.0;0.35;1.91
7.0;0.46;2.5
8.0;0.6;3.23
9.0;0.8;4.16
10.0;1.22;5.52
11.0;1.68;7.33
12.0;2.22;9.69
13.0;2.6;12.42
