GRAND_ID: 5620
DAM_NAME: 111.423958
LONG: 111.423958
LAT: 26.877315
Depth(m);Area(km2);Volume(mcm)
0.0;0.0;0.0
1.0;0.05;0.16
2.0;0.1;0.37
3.0;0.17;0.65
4.0;0.24;0.99
5.0;0.33;1.43
6.0;0.38;1.91
7.0;0.48;2.5
8.0;0.54;3.15
9.0;0.67;3.93
10.0;0.78;4.82
11.0;0.92;5.84
12.0;1.0;6.95
13.0;1.12;8.17
