GRAND_ID: 5621
DAM_NAME: 112.982425
LONG: 112.982425
LAT: 26.87317
Depth(m);Area(km2);Volume(mcm)
0.0;0.0;0.0
1.0;0.12;0.27
2.0;0.27;0.69
3.0;0.43;1.27
4.0;0.58;2.01
5.0;0.73;2.89
6.0;0.85;3.89
7.0;1.18;5.22
8.0;1.44;6.82
9.0;1.71;8.69
10.0;1.91;10.75
11.0;2.12;13.02
12.0;2.27;15.44
13.0;2.44;18.03
14.0;2.58;20.75
15.0;2.72;23.62
16.0;2.81;26.59
