GRAND_ID: 5626
DAM_NAME: 115.321877
LONG: 115.321877
LAT: 26.80539
Depth(m);Area(km2);Volume(mcm)
0.0;0.0;0.0
1.0;0.15;0.31
2.0;0.43;0.91
3.0;0.66;1.74
4.0;0.97;2.87
5.0;1.16;4.2
6.0;1.41;5.77
7.0;1.55;7.48
8.0;1.72;9.37
9.0;1.82;11.35
10.0;1.93;13.45
11.0;1.99;15.6
12.0;2.06;17.82
13.0;2.1;20.09
14.0;2.15;22.4
15.0;2.18;24.75
16.0;2.22;27.14
17.0;2.24;29.54
