GRAND_ID: 5639
DAM_NAME: 114.877911
LONG: 114.877911
LAT: 26.487943
Depth(m);Area(km2);Volume(mcm)
0.0;0.0;0.0
1.0;0.08;0.18
2.0;0.15;0.44
3.0;0.24;0.78
4.0;0.28;1.16
5.0;0.35;1.62
6.0;0.39;2.11
7.0;0.45;2.66
8.0;0.51;3.28
9.0;0.79;4.17
10.0;0.95;5.23
11.0;1.12;6.45
12.0;1.2;7.75
13.0;1.32;9.17
14.0;1.4;10.68
