GRAND_ID: 5647
DAM_NAME: 113.311605
LONG: 113.311605
LAT: 26.312681
Depth(m);Area(km2);Volume(mcm)
0.0;0.0;0.0
1.0;0.05;0.17
2.0;0.12;0.4
3.0;0.18;0.7
4.0;0.25;1.07
5.0;0.32;1.51
6.0;0.43;2.07
7.0;0.54;2.73
8.0;0.67;3.52
9.0;0.87;4.51
10.0;1.23;5.86
11.0;1.51;7.49
12.0;1.86;9.47
13.0;2.16;11.75
