GRAND_ID: 5657
DAM_NAME: 116.076007
LONG: 116.076007
LAT: 26.00625
Depth(m);Area(km2);Volume(mcm)
0.0;0.0;0.0
1.0;0.02;0.13
2.0;0.05;0.29
3.0;0.08;0.48
4.0;0.11;0.71
5.0;0.18;1.0
6.0;0.23;1.34
7.0;0.29;1.74
8.0;0.35;2.2
9.0;0.45;2.75
10.0;0.5;3.36
11.0;0.58;4.05
12.0;0.64;4.8
13.0;0.78;5.69
14.0;0.89;6.7
15.0;1.14;7.94
16.0;1.32;9.38
