GRAND_ID: 5655
DAM_NAME: 116.207373
LONG: 116.207373
LAT: 26.031388
Depth(m);Area(km2);Volume(mcm)
0.0;0.0;0.0
1.0;0.17;0.34
2.0;0.38;0.9
3.0;0.54;1.61
4.0;0.82;2.61
5.0;1.07;3.85
6.0;1.44;5.47
7.0;1.69;7.34
8.0;2.1;9.61
9.0;2.36;12.14
10.0;2.97;15.29
11.0;3.42;18.88
12.0;4.29;23.35
