GRAND_ID: 5668
DAM_NAME: 115.81539
LONG: 115.81539
LAT: 25.571271
Depth(m);Area(km2);Volume(mcm)
0.0;0.0;0.0
1.0;0.16;0.28
2.0;0.28;0.68
3.0;0.48;1.29
4.0;0.62;2.04
5.0;0.86;3.02
6.0;1.03;4.18
7.0;1.26;5.57
8.0;1.45;7.14
9.0;1.75;9.02
10.0;2.04;11.19
11.0;2.37;13.68
12.0;2.59;16.39
13.0;2.89;19.41
14.0;3.11;22.64
