GRAND_ID: 5663
DAM_NAME: 114.505711
LONG: 114.505711
LAT: 25.797452
Depth(m);Area(km2);Volume(mcm)
0.0;0.0;0.0
1.0;0.24;0.37
2.0;0.41;0.92
3.0;0.69;1.74
4.0;0.9;2.77
5.0;1.22;4.12
6.0;1.54;5.79
7.0;1.88;7.79
8.0;2.2;10.12
9.0;2.5;12.75
10.0;2.71;15.6
11.0;2.92;18.65
12.0;3.11;21.89
13.0;3.32;25.35
14.0;3.49;28.97
15.0;3.83;32.93
16.0;4.08;37.14
17.0;4.49;41.76
18.0;4.81;46.7
19.0;5.2;52.03
