GRAND_ID: 5673
DAM_NAME: 109.43462
LONG: 109.43462
LAT: 25.457046
Depth(m);Area(km2);Volume(mcm)
0.0;0.0;0.0
1.0;0.1;0.21
2.0;0.21;0.53
3.0;0.54;1.18
4.0;1.05;2.34
5.0;1.44;3.9
6.0;2.13;6.14
7.0;2.82;9.07
8.0;3.88;13.06
9.0;4.88;18.06
10.0;6.5;24.67
11.0;7.71;32.49
12.0;9.46;42.06
13.0;11.2;53.37
14.0;12.69;66.18
15.0;13.92;80.21
16.0;15.79;96.11
17.0;16.76;112.98
18.0;18.24;131.34
