GRAND_ID: 5686
DAM_NAME: 118.800838
LONG: 118.800838
LAT: 25.144178
Depth(m);Area(km2);Volume(mcm)
0.0;0.0;0.0
1.0;0.06;0.19
2.0;0.14;0.46
3.0;0.21;0.8
4.0;0.29;1.22
5.0;0.37;1.73
6.0;0.52;2.38
7.0;0.63;3.14
8.0;0.72;3.99
9.0;0.81;4.93
10.0;0.87;5.93
11.0;0.94;7.0
12.0;1.02;8.15
13.0;1.08;9.36
14.0;1.15;10.64
15.0;1.21;11.98
16.0;1.29;13.4
17.0;1.34;14.87
18.0;1.4;16.4
19.0;1.45;17.98
20.0;1.5;19.61
21.0;1.53;21.27
