GRAND_ID: 5696
DAM_NAME: 118.138155
LONG: 118.138155
LAT: 24.794833
Depth(m);Area(km2);Volume(mcm)
0.0;0.0;0.0
1.0;0.09;0.2
2.0;0.24;0.56
3.0;0.38;1.06
4.0;0.52;1.7
5.0;0.64;2.46
6.0;0.72;3.29
7.0;0.8;4.21
8.0;0.88;5.22
9.0;0.95;6.28
10.0;1.01;7.41
11.0;1.07;8.59
12.0;1.12;9.83
13.0;1.18;11.13
14.0;1.23;12.48
15.0;1.29;13.88
16.0;1.33;15.33
17.0;1.4;16.84
18.0;1.46;18.42
19.0;1.53;20.07
20.0;1.58;21.76
21.0;1.62;23.5
22.0;1.66;25.28
