GRAND_ID: 5715
DAM_NAME: 112.032369
LONG: 112.032369
LAT: 24.104002
Depth(m);Area(km2);Volume(mcm)
0.0;0.0;0.0
1.0;0.14;0.26
2.0;0.27;0.65
3.0;0.44;1.21
4.0;0.75;2.08
5.0;1.03;3.22
6.0;1.22;4.56
7.0;1.42;6.1
8.0;1.56;7.77
9.0;1.72;9.6
10.0;1.79;11.52
11.0;1.88;13.51
12.0;1.92;15.55
13.0;1.96;17.63
