GRAND_ID: 5712
DAM_NAME: 117.878978
LONG: 117.878978
LAT: 24.258154
Depth(m);Area(km2);Volume(mcm)
0.0;0.0;0.0
1.0;0.07;0.18
2.0;0.14;0.42
3.0;0.2;0.73
4.0;0.26;1.09
5.0;0.33;1.53
6.0;0.42;2.06
7.0;0.52;2.68
8.0;0.61;3.4
9.0;0.71;4.22
10.0;0.81;5.13
11.0;1.02;6.26
12.0;1.35;7.71
13.0;1.63;9.45
14.0;2.04;11.6
15.0;2.4;14.11
16.0;2.87;17.08
17.0;3.24;20.43
18.0;3.7;24.23
19.0;4.01;28.35
