GRAND_ID: 5713
DAM_NAME: 115.693044
LONG: 115.693044
LAT: 24.254077
Depth(m);Area(km2);Volume(mcm)
0.0;0.0;0.0
1.0;0.07;0.18
2.0;0.34;0.62
3.0;0.58;1.31
4.0;0.9;2.31
5.0;1.14;3.55
6.0;1.47;5.13
7.0;1.72;6.96
8.0;2.27;9.33
9.0;2.7;12.14
10.0;3.32;15.56
11.0;3.7;19.37
12.0;4.06;23.54
13.0;4.24;27.88
