GRAND_ID: 5727
DAM_NAME: 106.862346
LONG: 106.862346
LAT: 23.815531
Depth(m);Area(km2);Volume(mcm)
0.0;0.0;0.0
1.0;0.02;0.15
2.0;0.06;0.34
3.0;0.11;0.58
4.0;0.21;0.93
5.0;0.38;1.43
6.0;0.57;2.13
7.0;0.72;2.99
8.0;0.94;4.05
9.0;1.08;5.26
10.0;1.32;6.71
11.0;1.46;8.3
12.0;1.69;10.12
13.0;1.91;12.16
14.0;2.15;14.44
15.0;2.3;16.87
16.0;2.48;19.48
17.0;2.59;22.2
18.0;2.75;25.08
19.0;2.93;28.15
