GRAND_ID: 5744
DAM_NAME: 114.550358
LONG: 114.550358
LAT: 23.56774
Depth(m);Area(km2);Volume(mcm)
0.0;0.0;0.0
1.0;0.05;0.17
2.0;0.11;0.4
3.0;0.17;0.69
4.0;0.24;1.05
5.0;0.36;1.54
6.0;0.44;2.1
7.0;0.55;2.77
8.0;0.62;3.51
9.0;0.73;4.37
10.0;0.81;5.29
11.0;0.94;6.36
12.0;1.04;7.53
13.0;1.15;8.8
14.0;1.24;10.16
15.0;1.34;11.63
16.0;1.44;13.19
17.0;1.56;14.87
18.0;1.67;16.66
19.0;1.79;18.57
