GRAND_ID: 5748
DAM_NAME: 108.077943
LONG: 108.077943
LAT: 23.378607
Depth(m);Area(km2);Volume(mcm)
0.0;0.0;0.0
1.0;0.03;0.17
2.0;0.07;0.39
3.0;0.12;0.65
4.0;0.18;0.97
5.0;0.27;1.38
6.0;0.4;1.92
7.0;0.54;2.61
8.0;0.85;3.6
9.0;1.04;4.78
10.0;1.32;6.25
11.0;1.76;8.15
12.0;2.34;10.64
13.0;2.8;13.58
14.0;3.36;17.08
15.0;3.79;21.02
16.0;4.48;25.65
