GRAND_ID: 5759
DAM_NAME: 116.260315
LONG: 116.260315
LAT: 23.070087
Depth(m);Area(km2);Volume(mcm)
0.0;0.0;0.0
1.0;0.1;0.22
2.0;0.22;0.56
3.0;0.34;1.02
4.0;0.5;1.64
5.0;0.62;2.38
6.0;0.76;3.26
7.0;0.85;4.23
8.0;0.94;5.29
9.0;1.03;6.44
10.0;1.12;7.68
11.0;1.2;9.0
12.0;1.26;10.38
13.0;1.32;11.82
14.0;1.38;13.33
15.0;1.42;14.87
16.0;1.45;16.44
