GRAND_ID: 5756
DAM_NAME: 110.342979
LONG: 110.342979
LAT: 23.200846
Depth(m);Area(km2);Volume(mcm)
0.0;0.0;0.0
1.0;0.16;0.29
2.0;0.29;0.71
3.0;0.43;1.27
4.0;0.63;2.03
5.0;0.94;3.1
6.0;1.23;4.47
7.0;1.66;6.26
8.0;2.01;8.39
9.0;2.52;11.05
10.0;2.94;14.12
11.0;3.61;17.86
12.0;4.19;22.17
13.0;5.16;27.46
14.0;5.8;33.39
15.0;6.7;40.22
16.0;7.51;47.86
17.0;8.47;56.46
18.0;9.3;65.89
19.0;10.32;76.34
20.0;11.13;87.6
