GRAND_ID: 5752
DAM_NAME: 114.118756
LONG: 114.118756
LAT: 23.248047
Depth(m);Area(km2);Volume(mcm)
0.0;0.0;0.0
1.0;0.43;0.6
2.0;1.39;2.16
3.0;2.49;4.82
4.0;3.18;8.17
5.0;3.91;12.24
6.0;4.52;16.93
7.0;5.52;22.62
8.0;6.43;29.21
9.0;7.31;36.69
10.0;8.11;44.97
11.0;8.83;53.96
12.0;9.47;63.6
13.0;10.0;73.77
14.0;10.39;84.33
15.0;10.78;95.27
16.0;11.02;106.46
