GRAND_ID: 5757
DAM_NAME: 115.90083
LONG: 115.90083
LAT: 23.090759
Depth(m);Area(km2);Volume(mcm)
0.0;0.0;0.0
1.0;0.2;0.37
2.0;0.4;0.94
3.0;0.62;1.73
4.0;0.85;2.74
5.0;1.17;4.08
6.0;1.43;5.68
7.0;1.71;7.56
8.0;1.91;9.64
9.0;2.17;11.98
10.0;2.39;14.54
11.0;2.64;17.34
12.0;2.86;20.38
13.0;3.1;23.65
14.0;3.28;27.1
15.0;3.47;30.74
16.0;3.65;34.56
17.0;3.81;38.54
18.0;3.93;42.64
