GRAND_ID: 5766
DAM_NAME: 109.386669
LONG: 109.386669
LAT: 22.467589
Depth(m);Area(km2);Volume(mcm)
0.0;0.0;0.0
1.0;0.13;0.29
2.0;0.34;0.79
3.0;0.87;1.81
4.0;1.82;3.79
5.0;2.98;6.92
6.0;3.78;10.86
7.0;4.51;15.52
8.0;4.98;20.66
9.0;5.36;26.18
10.0;5.59;31.92
11.0;5.78;37.85
12.0;5.88;43.88
13.0;6.0;50.04
14.0;6.07;56.27
15.0;6.15;62.57
16.0;6.2;68.93
