GRAND_ID: 5777
DAM_NAME: 109.153486
LONG: 109.153486
LAT: 21.795081
Depth(m);Area(km2);Volume(mcm)
0.0;0.0;0.0
1.0;0.17;0.33
2.0;0.75;1.23
3.0;1.58;2.97
4.0;2.37;5.5
5.0;3.69;9.34
6.0;5.08;14.58
7.0;6.07;20.8
8.0;7.12;28.07
9.0;8.33;36.56
10.0;12.27;48.98
11.0;19.58;68.72
12.0;28.71;97.59
13.0;36.17;133.91
14.0;42.43;176.5
15.0;47.04;223.69
16.0;50.56;274.41
17.0;52.98;327.55
