GRAND_ID: 5776
DAM_NAME: 109.597884
LONG: 109.597884
LAT: 21.925366
Depth(m);Area(km2);Volume(mcm)
0.0;0.0;0.0
1.0;0.41;0.74
2.0;0.8;1.88
3.0;1.21;3.42
4.0;1.69;5.44
5.0;2.2;7.96
6.0;2.62;10.92
7.0;3.08;14.33
8.0;3.45;18.12
9.0;4.1;22.55
10.0;4.81;27.69
11.0;5.99;34.01
12.0;7.15;41.49
13.0;8.4;50.22
14.0;10.02;60.57
15.0;11.73;72.64
16.0;13.39;86.35
17.0;15.12;101.81
