GRAND_ID: 5781
DAM_NAME: 111.171441
LONG: 111.171441
LAT: 21.577269
Depth(m);Area(km2);Volume(mcm)
0.0;0.0;0.0
1.0;0.14;0.41
2.0;0.28;0.96
3.0;0.39;1.63
4.0;0.5;2.4
5.0;0.61;3.28
6.0;0.74;4.29
7.0;0.85;5.41
8.0;0.94;6.62
9.0;1.01;7.91
10.0;1.06;9.24
11.0;1.1;10.62
12.0;1.13;12.02
