GRAND_ID: 5790
DAM_NAME: 108.790453
LONG: 108.790453
LAT: 18.846676
Depth(m);Area(km2);Volume(mcm)
0.0;0.0;0.0
1.0;0.05;0.17
2.0;0.12;0.42
3.0;0.19;0.72
4.0;0.26;1.1
5.0;0.34;1.55
6.0;0.4;2.08
7.0;0.48;2.68
8.0;0.57;3.36
9.0;0.65;4.14
10.0;0.91;5.16
11.0;1.27;6.56
12.0;1.61;8.28
13.0;1.92;10.32
14.0;2.28;12.72
15.0;2.62;15.46
16.0;3.08;18.66
17.0;3.47;22.26
18.0;3.85;26.22
