GRAND_ID: 5795
DAM_NAME: 105.467708
LONG: 105.467708
LAT: 15.279676
Depth(m);Area(km2);Volume(mcm)
0.0;0.0;0.0
1.0;0.27;0.42
2.0;1.11;1.69
3.0;2.16;4.0
4.0;5.1;9.26
5.0;9.31;18.72
6.0;17.1;35.97
7.0;26.51;62.64
8.0;36.5;99.29
9.0;49.2;148.64
10.0;74.93;223.72
11.0;115.39;339.27
12.0;177.71;517.13
13.0;216.98;734.26
