GRAND_ID: 5792
DAM_NAME: 109.080208
LONG: 109.080208
LAT: 18.628739
Depth(m);Area(km2);Volume(mcm)
0.0;0.0;0.0
1.0;0.26;0.39
2.0;0.55;1.07
3.0;1.13;2.33
4.0;1.48;3.94
5.0;2.01;6.07
6.0;2.4;8.61
7.0;2.82;11.55
8.0;3.14;14.82
9.0;3.96;18.91
10.0;4.66;23.71
11.0;5.56;29.4
12.0;6.16;35.69
13.0;7.05;42.87
14.0;7.6;50.6
15.0;8.15;58.88
16.0;8.53;67.54
17.0;8.84;76.51
