GRAND_ID: 5851
DAM_NAME: 122.212068
LONG: 122.212068
LAT: 42.682512
Depth(m);Area(km2);Volume(mcm)
0.0;0.0;0.0
1.0;0.02;0.12
2.0;0.05;0.28
3.0;0.08;0.46
4.0;0.12;0.68
5.0;0.15;0.93
6.0;0.21;1.24
7.0;0.27;1.61
8.0;0.34;2.05
9.0;0.39;2.55
10.0;0.44;3.09
11.0;0.48;3.68
12.0;0.53;4.3
13.0;0.56;4.96
14.0;0.6;5.67
15.0;0.63;6.4
16.0;0.66;7.15
17.0;0.69;7.94
