GRAND_ID: 5878
DAM_NAME: 121.004766
LONG: 121.004766
LAT: 41.678513
Depth(m);Area(km2);Volume(mcm)
0.0;0.0;0.0
1.0;0.07;0.19
2.0;1.58;1.88
3.0;3.71;5.72
4.0;6.71;12.54
5.0;8.97;21.63
6.0;10.6;32.36
7.0;11.02;43.49
8.0;11.29;54.9
9.0;11.47;66.49
10.0;11.63;78.23
11.0;11.74;90.1
12.0;11.86;102.07
13.0;11.94;114.13
14.0;12.03;126.28
15.0;12.09;138.49
16.0;12.16;150.76
17.0;12.2;163.09
18.0;12.24;175.45
