GRAND_ID: 5881
DAM_NAME: 123.936068
LONG: 123.936068
LAT: 41.485534
Depth(m);Area(km2);Volume(mcm)
0.0;0.0;0.0
1.0;0.06;0.19
2.0;0.13;0.44
3.0;0.18;0.75
4.0;0.24;1.12
5.0;0.29;1.54
6.0;0.36;2.02
7.0;0.41;2.56
8.0;0.47;3.15
9.0;0.53;3.81
10.0;0.62;4.56
11.0;0.68;5.36
12.0;0.78;6.27
13.0;0.91;7.31
14.0;1.11;8.54
15.0;1.21;9.87
16.0;1.38;11.38
17.0;1.46;12.96
18.0;1.6;14.69
19.0;1.71;16.53
