GRAND_ID: 5880
DAM_NAME: 123.897803
LONG: 123.897803
LAT: 41.65554
Depth(m);Area(km2);Volume(mcm)
0.0;0.0;0.0
1.0;0.04;0.14
2.0;0.09;0.34
3.0;0.14;0.58
4.0;0.22;0.91
5.0;0.28;1.29
6.0;0.39;1.78
7.0;0.5;2.38
8.0;0.68;3.16
9.0;0.88;4.14
10.0;0.98;5.22
11.0;1.02;6.35
12.0;1.07;7.52
