GRAND_ID: 5918
DAM_NAME: 125.474575
LONG: 125.474575
LAT: 39.167153
Depth(m);Area(km2);Volume(mcm)
0.0;0.0;0.0
1.0;0.08;0.22
2.0;0.16;0.52
3.0;0.29;0.94
4.0;0.52;1.61
5.0;0.81;2.56
6.0;1.1;3.8
7.0;1.26;5.2
8.0;1.38;6.72
9.0;1.45;8.32
10.0;1.52;9.98
11.0;1.54;11.66
12.0;1.56;13.36
