GRAND_ID: 5925
DAM_NAME: 125.409493
LONG: 125.409493
LAT: 38.612796
Depth(m);Area(km2);Volume(mcm)
0.0;0.0;0.0
1.0;0.09;0.22
2.0;0.18;0.53
3.0;0.3;0.96
4.0;0.37;1.46
5.0;0.43;2.02
6.0;0.51;2.67
7.0;0.6;3.4
8.0;0.71;4.24
9.0;0.87;5.24
10.0;1.05;6.42
11.0;1.26;7.81
12.0;1.42;9.36
13.0;1.55;11.04
14.0;1.65;12.82
15.0;1.74;14.68
16.0;1.78;16.6
17.0;1.8;18.53
