GRAND_ID: 5926
DAM_NAME: 125.462082
LONG: 125.462082
LAT: 38.597372
Depth(m);Area(km2);Volume(mcm)
0.0;0.0;0.0
1.0;0.09;0.24
2.0;0.3;0.68
3.0;0.65;1.48
4.0;1.04;2.67
5.0;1.28;4.09
6.0;1.5;5.73
7.0;1.65;7.53
8.0;1.77;9.46
9.0;1.85;11.46
10.0;1.89;13.49
11.0;1.92;15.56
12.0;1.94;17.64
