GRAND_ID: 5933
DAM_NAME: 128.485051
LONG: 128.485051
LAT: 38.269616
Depth(m);Area(km2);Volume(mcm)
0.0;0.0;0.0
1.0;0.02;0.13
2.0;0.05;0.29
3.0;0.07;0.47
4.0;0.09;0.66
5.0;0.11;0.88
6.0;0.13;1.13
7.0;0.15;1.38
8.0;0.17;1.66
9.0;0.19;1.96
10.0;0.19;2.26
11.0;0.2;2.57
12.0;0.21;2.89
13.0;0.21;3.21
14.0;0.21;3.53
