GRAND_ID: 5936
DAM_NAME: 125.353158
LONG: 125.353158
LAT: 38.052774
Depth(m);Area(km2);Volume(mcm)
0.0;0.0;0.0
1.0;0.1;0.24
2.0;0.27;0.66
3.0;0.44;1.24
4.0;0.76;2.14
5.0;0.96;3.24
6.0;1.13;4.51
7.0;1.24;5.89
8.0;1.31;7.34
9.0;1.36;8.84
10.0;1.4;10.38
11.0;1.41;11.94
12.0;1.43;13.51
13.0;1.44;15.09
14.0;1.45;16.69
15.0;1.46;18.29
16.0;1.47;19.9
17.0;1.47;21.51
18.0;1.47;23.13
