GRAND_ID: 5952
DAM_NAME: 127.602721
LONG: 127.602721
LAT: 36.975891
Depth(m);Area(km2);Volume(mcm)
0.0;0.0;0.0
1.0;0.03;0.13
2.0;0.04;0.27
3.0;0.07;0.44
4.0;0.08;0.62
5.0;0.11;0.84
6.0;0.13;1.07
7.0;0.16;1.34
8.0;0.19;1.63
9.0;0.22;1.95
10.0;0.25;2.31
11.0;0.28;2.69
12.0;0.29;3.09
13.0;0.31;3.5
14.0;0.32;3.92
15.0;0.32;4.34
16.0;0.33;4.78
17.0;0.34;5.22
18.0;0.34;5.66
