GRAND_ID: 5950
DAM_NAME: 127.610815
LONG: 127.610815
LAT: 36.986292
Depth(m);Area(km2);Volume(mcm)
0.0;0.0;0.0
1.0;0.02;0.12
2.0;0.03;0.26
3.0;0.05;0.42
4.0;0.07;0.59
5.0;0.09;0.79
6.0;0.11;1.01
7.0;0.13;1.24
8.0;0.15;1.5
9.0;0.17;1.78
10.0;0.19;2.07
11.0;0.22;2.39
12.0;0.23;2.73
13.0;0.26;3.1
14.0;0.26;3.46
15.0;0.28;3.85
