GRAND_ID: 5951
DAM_NAME: 127.615625
LONG: 127.615625
LAT: 36.976273
Depth(m);Area(km2);Volume(mcm)
0.0;0.0;0.0
1.0;0.02;0.12
2.0;0.05;0.28
3.0;0.09;0.47
4.0;0.15;0.72
5.0;0.18;1.0
6.0;0.21;1.31
7.0;0.23;1.65
8.0;0.25;2.01
9.0;0.27;2.39
10.0;0.29;2.78
11.0;0.3;3.19
12.0;0.32;3.61
13.0;0.33;4.05
14.0;0.34;4.49
15.0;0.34;4.94
16.0;0.35;5.4
17.0;0.36;5.86
