GRAND_ID: 5956
DAM_NAME: 127.574833
LONG: 127.574833
LAT: 36.854532
Depth(m);Area(km2);Volume(mcm)
0.0;0.0;0.0
1.0;0.08;0.19
2.0;0.15;0.45
3.0;0.29;0.84
4.0;0.4;1.35
5.0;0.51;1.97
6.0;0.61;2.69
7.0;0.73;3.53
8.0;0.81;4.44
9.0;0.88;5.43
10.0;0.93;6.46
11.0;0.98;7.54
12.0;1.02;8.67
13.0;1.07;9.84
14.0;1.09;11.04
15.0;1.12;12.26
16.0;1.14;13.51
