GRAND_ID: 5959
DAM_NAME: 126.806297
LONG: 126.806297
LAT: 36.639283
Depth(m);Area(km2);Volume(mcm)
0.0;0.0;0.0
1.0;1.06;1.66
2.0;2.21;4.47
3.0;3.47;8.55
4.0;4.37;13.52
5.0;5.3;19.42
6.0;5.98;25.99
7.0;6.88;33.47
8.0;7.84;41.91
9.0;8.57;51.08
10.0;9.13;60.81
11.0;9.49;70.9
12.0;9.71;81.21
13.0;9.92;91.73
14.0;10.05;102.38
15.0;10.14;113.12
16.0;10.22;123.94
