GRAND_ID: 5967
DAM_NAME: 126.626898
LONG: 126.626898
LAT: 36.379041
Depth(m);Area(km2);Volume(mcm)
0.0;0.0;0.0
1.0;0.07;0.18
2.0;0.19;0.48
3.0;0.31;0.9
4.0;0.42;1.43
5.0;0.53;2.06
6.0;0.65;2.83
7.0;0.87;3.81
8.0;1.13;5.05
9.0;1.32;6.47
10.0;1.49;8.08
11.0;1.65;9.84
12.0;1.86;11.81
13.0;2.01;13.93
14.0;2.18;16.22
15.0;2.29;18.62
16.0;2.39;21.12
17.0;2.46;23.69
18.0;2.51;26.32
19.0;2.55;28.98
