GRAND_ID: 5975
DAM_NAME: 128.473958
LONG: 128.473958
LAT: 35.639583
Depth(m);Area(km2);Volume(mcm)
0.0;0.0;0.0
1.0;0.08;0.22
2.0;0.15;0.52
3.0;0.25;0.91
4.0;0.32;1.37
5.0;0.4;1.91
6.0;0.54;2.59
7.0;0.73;3.46
8.0;0.83;4.43
9.0;0.9;5.48
10.0;0.96;6.58
11.0;1.01;7.74
12.0;1.03;8.91
13.0;1.07;10.12
14.0;1.09;11.35
15.0;1.11;12.6
16.0;1.12;13.87
17.0;1.14;15.15
18.0;1.14;16.43
19.0;1.15;17.72
20.0;1.15;19.01
21.0;1.15;20.3
22.0;1.15;21.6
