GRAND_ID: 5984
DAM_NAME: 133.329595
LONG: 133.329595
LAT: 35.30865
Depth(m);Area(km2);Volume(mcm)
0.0;0.0;0.0
1.0;0.01;0.12
2.0;0.03;0.25
3.0;0.04;0.4
4.0;0.05;0.56
5.0;0.08;0.74
6.0;0.1;0.94
7.0;0.13;1.17
8.0;0.16;1.43
9.0;0.18;1.71
10.0;0.21;2.02
11.0;0.23;2.36
12.0;0.26;2.72
13.0;0.28;3.11
