GRAND_ID: 5980
DAM_NAME: 126.636076
LONG: 126.636076
LAT: 35.46456
Depth(m);Area(km2);Volume(mcm)
0.0;0.0;0.0
1.0;0.05;0.19
2.0;0.11;0.44
3.0;0.15;0.72
4.0;0.2;1.06
5.0;0.25;1.44
6.0;0.32;1.9
7.0;0.4;2.43
8.0;0.46;3.03
9.0;0.51;3.68
10.0;0.57;4.39
11.0;0.62;5.14
12.0;0.68;5.96
13.0;0.74;6.84
14.0;0.77;7.75
15.0;0.8;8.68
16.0;0.81;9.63
