GRAND_ID: 6062
DAM_NAME: 131.282211
LONG: 131.282211
LAT: 34.07687
Depth(m);Area(km2);Volume(mcm)
0.0;0.0;0.0
1.0;0.03;0.13
2.0;0.05;0.29
3.0;0.08;0.47
4.0;0.16;0.74
5.0;0.26;1.1
6.0;0.43;1.63
7.0;0.73;2.46
8.0;1.0;3.57
9.0;1.24;4.92
10.0;1.41;6.43
11.0;1.53;8.06
12.0;1.62;9.78
