GRAND_ID: 6125
DAM_NAME: 131.609365
LONG: 131.609365
LAT: 32.794022
Depth(m);Area(km2);Volume(mcm)
0.0;0.0;0.0
1.0;0.01;0.12
2.0;0.03;0.26
3.0;0.04;0.4
4.0;0.07;0.59
5.0;0.1;0.79
6.0;0.12;1.02
7.0;0.15;1.28
8.0;0.19;1.57
9.0;0.23;1.9
10.0;0.3;2.31
11.0;0.38;2.8
12.0;0.5;3.4
13.0;0.57;4.07
14.0;0.67;4.84
15.0;0.72;5.67
16.0;0.81;6.58
