GRAND_ID: 6138
DAM_NAME: 130.413542
LONG: 130.413542
LAT: 32.059151
Depth(m);Area(km2);Volume(mcm)
0.0;0.0;0.0
1.0;0.02;0.13
2.0;0.04;0.28
3.0;0.05;0.44
4.0;0.06;0.62
5.0;0.09;0.81
6.0;0.1;1.03
7.0;0.12;1.26
8.0;0.15;1.52
9.0;0.17;1.8
10.0;0.19;2.11
11.0;0.21;2.43
12.0;0.23;2.77
13.0;0.26;3.15
14.0;0.28;3.54
15.0;0.31;3.96
16.0;0.33;4.39
17.0;0.37;4.87
