GRAND_ID: 6166
DAM_NAME: 120.145721
LONG: 120.145721
LAT: 28.88727
Depth(m);Area(km2);Volume(mcm)
0.0;0.0;0.0
1.0;0.07;0.21
2.0;0.12;0.46
3.0;0.2;0.8
4.0;0.25;1.18
5.0;0.39;1.7
6.0;0.52;2.35
7.0;0.8;3.29
8.0;0.98;4.4
9.0;1.45;5.99
10.0;1.68;7.8
11.0;1.98;9.91
12.0;2.21;12.25
13.0;2.57;14.96
14.0;2.81;17.9
15.0;3.12;21.16
16.0;3.32;24.61
17.0;3.62;28.37
18.0;3.87;32.37
19.0;4.25;36.75
20.0;4.5;41.38
