GRAND_ID: 6165
DAM_NAME: 120.179931
LONG: 120.179931
LAT: 29.03182
Depth(m);Area(km2);Volume(mcm)
0.0;0.0;0.0
1.0;0.07;0.21
2.0;0.23;0.58
3.0;0.43;1.15
4.0;1.04;2.33
5.0;1.51;3.97
6.0;1.93;6.04
7.0;2.16;8.34
8.0;2.44;10.92
9.0;2.63;13.69
10.0;2.9;16.72
11.0;3.08;19.94
12.0;3.31;23.39
