GRAND_ID: 6170
DAM_NAME: 121.238452
LONG: 121.238452
LAT: 28.490347
Depth(m);Area(km2);Volume(mcm)
0.0;0.0;0.0
1.0;0.06;0.21
2.0;0.18;0.54
3.0;0.32;1.01
4.0;0.46;1.62
5.0;0.61;2.38
6.0;0.76;3.28
7.0;0.92;4.35
8.0;1.05;5.55
9.0;1.17;6.87
10.0;1.28;8.3
11.0;1.36;9.81
12.0;1.45;11.41
13.0;1.53;13.09
14.0;1.6;14.84
15.0;1.68;16.67
16.0;1.76;18.58
