GRAND_ID: 6173
DAM_NAME: 121.423243
LONG: 121.423243
LAT: 28.372238
Depth(m);Area(km2);Volume(mcm)
0.0;0.0;0.0
1.0;0.08;0.19
2.0;0.17;0.47
3.0;0.3;0.88
4.0;0.48;1.47
5.0;0.67;2.25
6.0;0.83;3.19
7.0;1.02;4.32
8.0;1.23;5.66
9.0;1.45;7.22
10.0;1.66;8.99
11.0;1.9;11.01
12.0;2.16;13.27
13.0;2.43;15.82
14.0;2.67;18.6
15.0;2.96;21.67
