GRAND_ID: 6175
DAM_NAME: 120.852126
LONG: 120.852126
LAT: 28.109891
Depth(m);Area(km2);Volume(mcm)
0.0;0.0;0.0
1.0;0.03;0.14
2.0;0.06;0.31
3.0;0.08;0.51
4.0;0.11;0.73
5.0;0.13;0.98
6.0;0.15;1.25
7.0;0.17;1.54
8.0;0.2;1.85
9.0;0.22;2.18
10.0;0.24;2.54
11.0;0.26;2.92
12.0;0.28;3.31
13.0;0.3;3.72
14.0;0.33;4.17
15.0;0.35;4.64
16.0;0.36;5.11
17.0;0.37;5.6
18.0;0.39;6.1
19.0;0.4;6.62
20.0;0.41;7.15
21.0;0.42;7.68
22.0;0.43;8.22
23.0;0.44;8.77
