GRAND_ID: 6181
DAM_NAME: 127.929694
LONG: 127.929694
LAT: 26.466417
Depth(m);Area(km2);Volume(mcm)
0.0;0.0;0.0
1.0;0.02;0.12
2.0;0.04;0.27
3.0;0.06;0.44
4.0;0.08;0.62
5.0;0.1;0.83
6.0;0.13;1.06
7.0;0.15;1.31
8.0;0.17;1.59
9.0;0.19;1.88
10.0;0.21;2.19
11.0;0.22;2.52
12.0;0.24;2.87
13.0;0.26;3.24
14.0;0.27;3.61
15.0;0.28;4.0
16.0;0.29;4.4
17.0;0.3;4.8
18.0;0.3;5.21
19.0;0.31;5.62
20.0;0.31;6.04
