GRAND_ID: 6234
DAM_NAME: 141.593668
LONG: 141.593668
LAT: 43.478316
Depth(m);Area(km2);Volume(mcm)
0.0;0.0;0.0
1.0;0.07;0.21
2.0;0.13;0.47
3.0;0.24;0.84
4.0;0.35;1.33
5.0;0.48;1.94
6.0;0.55;2.62
7.0;0.66;3.41
8.0;0.74;4.29
9.0;0.83;5.25
10.0;0.89;6.27
11.0;0.98;7.39
12.0;1.06;8.58
13.0;1.15;9.86
14.0;1.22;11.21
