GRAND_ID: 6248
DAM_NAME: 141.937352
LONG: 141.937352
LAT: 43.164252
Depth(m);Area(km2);Volume(mcm)
0.0;0.0;0.0
1.0;0.02;0.14
2.0;0.05;0.31
3.0;0.07;0.5
4.0;0.11;0.72
5.0;0.13;0.97
6.0;0.17;1.25
7.0;0.2;1.57
8.0;0.24;1.92
9.0;0.26;2.3
10.0;0.29;2.71
11.0;0.32;3.15
12.0;0.36;3.63
13.0;0.39;4.13
14.0;0.42;4.67
15.0;0.44;5.23
16.0;0.47;5.81
17.0;0.49;6.41
