GRAND_ID: 6249
DAM_NAME: 142.908961
LONG: 142.908961
LAT: 43.149448
Depth(m);Area(km2);Volume(mcm)
0.0;0.0;0.0
1.0;0.09;0.2
2.0;0.17;0.48
3.0;0.25;0.83
4.0;0.29;1.23
5.0;0.34;1.68
6.0;0.38;2.16
7.0;0.41;2.68
8.0;0.42;3.21
9.0;0.44;3.75
10.0;0.45;4.31
11.0;0.47;4.88
12.0;0.47;5.46
13.0;0.48;6.05
14.0;0.48;6.64
15.0;0.49;7.23
16.0;0.49;7.83
17.0;0.5;8.43
