GRAND_ID: 6255
DAM_NAME: 141.917566
LONG: 141.917566
LAT: 42.909739
Depth(m);Area(km2);Volume(mcm)
0.0;0.0;0.0
1.0;0.01;0.12
2.0;0.04;0.26
3.0;0.05;0.41
4.0;0.09;0.6
5.0;0.14;0.85
6.0;0.18;1.13
7.0;0.22;1.45
8.0;0.25;1.8
9.0;0.27;2.18
10.0;0.35;2.62
11.0;0.45;3.18
12.0;0.54;3.82
13.0;0.6;4.53
14.0;0.64;5.27
15.0;0.67;6.04
16.0;0.68;6.83
17.0;0.7;7.63
18.0;0.71;8.44
