GRAND_ID: 6256
DAM_NAME: 142.178751
LONG: 142.178751
LAT: 42.885899
Depth(m);Area(km2);Volume(mcm)
0.0;0.0;0.0
1.0;0.07;0.22
2.0;0.14;0.51
3.0;0.2;0.86
4.0;0.26;1.27
5.0;0.32;1.74
6.0;0.38;2.27
7.0;0.43;2.85
8.0;0.51;3.51
9.0;0.56;4.22
10.0;0.65;5.03
11.0;0.71;5.89
12.0;0.78;6.81
13.0;0.83;7.79
14.0;0.88;8.82
