GRAND_ID: 6263
DAM_NAME: 142.535134
LONG: 142.535134
LAT: 42.568563
Depth(m);Area(km2);Volume(mcm)
0.0;0.0;0.0
1.0;0.04;0.15
2.0;0.06;0.33
3.0;0.09;0.53
4.0;0.11;0.75
5.0;0.14;1.01
6.0;0.16;1.28
7.0;0.19;1.59
8.0;0.21;1.91
9.0;0.24;2.26
10.0;0.25;2.62
11.0;0.27;3.01
12.0;0.28;3.4
13.0;0.29;3.8
