GRAND_ID: 6274
DAM_NAME: 140.597755
LONG: 140.597755
LAT: 41.868666
Depth(m);Area(km2);Volume(mcm)
0.0;0.0;0.0
1.0;0.03;0.14
2.0;0.04;0.3
3.0;0.07;0.49
4.0;0.1;0.7
5.0;0.12;0.94
6.0;0.14;1.2
7.0;0.17;1.48
8.0;0.19;1.79
9.0;0.22;2.13
10.0;0.24;2.49
11.0;0.26;2.87
12.0;0.29;3.28
13.0;0.32;3.72
14.0;0.34;4.18
15.0;0.35;4.65
