GRAND_ID: 6281
DAM_NAME: 140.676042
LONG: 140.676042
LAT: 40.719074
Depth(m);Area(km2);Volume(mcm)
0.0;0.0;0.0
1.0;0.02;0.13
2.0;0.03;0.29
3.0;0.05;0.46
4.0;0.07;0.64
5.0;0.1;0.86
6.0;0.12;1.1
7.0;0.14;1.35
8.0;0.16;1.63
9.0;0.18;1.93
10.0;0.2;2.25
11.0;0.23;2.59
12.0;0.25;2.96
13.0;0.28;3.36
14.0;0.29;3.77
