GRAND_ID: 6286
DAM_NAME: 140.544403
LONG: 140.544403
LAT: 40.464531
Depth(m);Area(km2);Volume(mcm)
0.0;0.0;0.0
1.0;0.03;0.14
2.0;0.05;0.31
3.0;0.08;0.5
4.0;0.09;0.7
5.0;0.12;0.93
6.0;0.14;1.19
7.0;0.17;1.47
8.0;0.2;1.78
9.0;0.22;2.11
10.0;0.25;2.47
11.0;0.27;2.86
12.0;0.29;3.26
13.0;0.32;3.7
14.0;0.34;4.15
15.0;0.39;4.66
16.0;0.42;5.18
17.0;0.44;5.74
18.0;0.46;6.32
19.0;0.49;6.92
20.0;0.52;7.55
21.0;0.53;8.2
