GRAND_ID: 6294
DAM_NAME: 140.310417
LONG: 140.310417
LAT: 39.92194
Depth(m);Area(km2);Volume(mcm)
0.0;0.0;0.0
1.0;0.01;0.12
2.0;0.02;0.24
3.0;0.04;0.39
4.0;0.06;0.56
5.0;0.07;0.74
6.0;0.09;0.94
7.0;0.11;1.16
8.0;0.14;1.4
9.0;0.17;1.68
10.0;0.2;1.99
11.0;0.24;2.34
12.0;0.29;2.74
13.0;0.32;3.16
14.0;0.35;3.62
15.0;0.37;4.1
16.0;0.4;4.61
