GRAND_ID: 6304
DAM_NAME: 140.711247
LONG: 140.711247
LAT: 39.636087
Depth(m);Area(km2);Volume(mcm)
0.0;0.0;0.0
1.0;0.02;0.13
2.0;0.04;0.27
3.0;0.08;0.46
4.0;0.11;0.67
5.0;0.13;0.91
6.0;0.16;1.17
7.0;0.18;1.46
8.0;0.2;1.76
9.0;0.22;2.09
10.0;0.24;2.43
11.0;0.26;2.8
12.0;0.28;3.19
13.0;0.3;3.59
14.0;0.31;4.01
15.0;0.34;4.45
16.0;0.35;4.9
