GRAND_ID: 6302
DAM_NAME: 141.206476
LONG: 141.206476
LAT: 39.710417
Depth(m);Area(km2);Volume(mcm)
0.0;0.0;0.0
1.0;0.02;0.14
2.0;0.05;0.31
3.0;0.07;0.5
4.0;0.11;0.73
5.0;0.14;0.99
6.0;0.16;1.27
7.0;0.18;1.57
8.0;0.21;1.89
9.0;0.22;2.23
10.0;0.24;2.58
11.0;0.26;2.96
12.0;0.28;3.35
13.0;0.3;3.77
