GRAND_ID: 6314
DAM_NAME: 141.00625
LONG: 141.00625
LAT: 39.225179
Depth(m);Area(km2);Volume(mcm)
0.0;0.0;0.0
1.0;0.03;0.19
2.0;0.06;0.41
3.0;0.09;0.66
4.0;0.12;0.93
5.0;0.14;1.23
6.0;0.17;1.56
7.0;0.18;1.9
8.0;0.2;2.26
9.0;0.22;2.63
10.0;0.22;3.01
11.0;0.23;3.4
12.0;0.24;3.79
13.0;0.25;4.2
