GRAND_ID: 6320
DAM_NAME: 140.868728
LONG: 140.868728
LAT: 38.782023
Depth(m);Area(km2);Volume(mcm)
0.0;0.0;0.0
1.0;0.03;0.13
2.0;0.06;0.3
3.0;0.11;0.51
4.0;0.18;0.79
5.0;0.47;1.35
6.0;0.64;2.09
7.0;0.8;3.0
8.0;0.97;4.06
9.0;1.16;5.33
10.0;1.3;6.73
11.0;1.44;8.27
12.0;1.52;9.9
13.0;1.6;11.59
14.0;1.62;13.32
