GRAND_ID: 6329
DAM_NAME: 140.822446
LONG: 140.822446
LAT: 38.434196
Depth(m);Area(km2);Volume(mcm)
0.0;0.0;0.0
1.0;0.08;0.21
2.0;0.12;0.46
3.0;0.17;0.77
4.0;0.25;1.15
5.0;0.31;1.59
6.0;0.35;2.07
7.0;0.4;2.6
8.0;0.43;3.16
9.0;0.46;3.76
10.0;0.49;4.39
11.0;0.52;5.04
12.0;0.55;5.73
13.0;0.58;6.44
14.0;0.59;7.16
