GRAND_ID: 6330
DAM_NAME: 140.734375
LONG: 140.734375
LAT: 38.356637
Depth(m);Area(km2);Volume(mcm)
0.0;0.0;0.0
1.0;0.01;0.11
2.0;0.02;0.24
3.0;0.03;0.38
4.0;0.03;0.52
5.0;0.04;0.66
6.0;0.05;0.82
7.0;0.06;0.99
8.0;0.07;1.16
9.0;0.08;1.35
10.0;0.09;1.54
11.0;0.1;1.75
12.0;0.11;1.97
13.0;0.13;2.2
14.0;0.14;2.45
15.0;0.16;2.71
16.0;0.18;3.0
17.0;0.22;3.33
18.0;0.24;3.67
19.0;0.27;4.05
20.0;0.29;4.45
21.0;0.3;4.86
22.0;0.32;5.28
