GRAND_ID: 6332
DAM_NAME: 140.13649
LONG: 140.13649
LAT: 38.2847
Depth(m);Area(km2);Volume(mcm)
0.0;0.0;0.0
1.0;0.06;0.2
2.0;0.14;0.49
3.0;0.25;0.88
4.0;0.37;1.39
5.0;0.45;1.98
6.0;0.52;2.65
7.0;0.57;3.36
8.0;0.63;4.13
9.0;0.65;4.92
10.0;0.69;5.75
11.0;0.71;6.6
12.0;0.73;7.47
