GRAND_ID: 6340
DAM_NAME: 139.641121
LONG: 139.641121
LAT: 38.076935
Depth(m);Area(km2);Volume(mcm)
0.0;0.0;0.0
1.0;0.04;0.19
2.0;0.09;0.41
3.0;0.14;0.69
4.0;0.18;1.01
5.0;0.21;1.36
6.0;0.24;1.74
7.0;0.26;2.13
8.0;0.28;2.55
9.0;0.29;2.98
10.0;0.3;3.42
11.0;0.3;3.87
12.0;0.32;4.33
