GRAND_ID: 6389
DAM_NAME: 138.075234
LONG: 138.075234
LAT: 36.858186
Depth(m);Area(km2);Volume(mcm)
0.0;0.0;0.0
1.0;0.02;0.13
2.0;0.05;0.29
3.0;0.07;0.48
4.0;0.12;0.71
5.0;0.16;0.99
6.0;0.22;1.31
7.0;0.24;1.66
8.0;0.3;2.07
9.0;0.32;2.51
10.0;0.36;2.98
11.0;0.4;3.49
12.0;0.48;4.09
13.0;0.52;4.72
14.0;0.58;5.4
15.0;0.61;6.13
16.0;0.65;6.89
17.0;0.69;7.69
18.0;0.74;8.54
19.0;0.76;9.42
