GRAND_ID: 6409
DAM_NAME: 137.091826
LONG: 137.091826
LAT: 36.537673
Depth(m);Area(km2);Volume(mcm)
0.0;0.0;0.0
1.0;0.01;0.13
2.0;0.03;0.27
3.0;0.05;0.43
4.0;0.06;0.61
5.0;0.07;0.79
6.0;0.1;1.0
7.0;0.11;1.22
8.0;0.13;1.46
9.0;0.16;1.74
10.0;0.19;2.04
11.0;0.22;2.37
12.0;0.25;2.73
13.0;0.27;3.11
14.0;0.3;3.52
15.0;0.31;3.94
16.0;0.33;4.38
17.0;0.34;4.83
18.0;0.36;5.31
19.0;0.37;5.79
20.0;0.39;6.29
21.0;0.4;6.8
22.0;0.41;7.33
23.0;0.42;7.86
