GRAND_ID: 6437
DAM_NAME: 136.351042
LONG: 136.351042
LAT: 36.210233
Depth(m);Area(km2);Volume(mcm)
0.0;0.0;0.0
1.0;0.01;0.11
2.0;0.02;0.23
3.0;0.03;0.36
4.0;0.04;0.5
5.0;0.06;0.66
6.0;0.08;0.84
7.0;0.09;1.03
8.0;0.1;1.23
9.0;0.12;1.45
10.0;0.14;1.69
11.0;0.16;1.96
12.0;0.19;2.25
13.0;0.2;2.55
14.0;0.23;2.88
15.0;0.25;3.23
16.0;0.26;3.59
17.0;0.27;3.96
18.0;0.28;4.35
19.0;0.3;4.75
20.0;0.32;5.17
