GRAND_ID: 6502
DAM_NAME: 136.99375
LONG: 136.99375
LAT: 35.339061
Depth(m);Area(km2);Volume(mcm)
0.0;0.0;0.0
1.0;0.07;0.17
2.0;0.15;0.42
3.0;0.26;0.78
4.0;0.36;1.24
5.0;0.49;1.83
6.0;0.57;2.5
7.0;0.68;3.28
8.0;0.79;4.17
9.0;0.87;5.14
10.0;0.93;6.17
11.0;0.99;7.26
12.0;1.07;8.43
13.0;1.16;9.68
14.0;1.21;11.0
15.0;1.27;12.36
16.0;1.32;13.79
