GRAND_ID: 6508
DAM_NAME: 137.391314
LONG: 137.391314
LAT: 35.240206
Depth(m);Area(km2);Volume(mcm)
0.0;0.0;0.0
1.0;0.01;0.12
2.0;0.02;0.25
3.0;0.03;0.39
4.0;0.03;0.53
5.0;0.04;0.68
6.0;0.05;0.84
7.0;0.05;1.01
8.0;0.06;1.18
9.0;0.07;1.37
10.0;0.08;1.56
11.0;0.1;1.77
12.0;0.11;1.99
13.0;0.15;2.25
14.0;0.2;2.57
15.0;0.24;2.93
16.0;0.26;3.3
17.0;0.29;3.7
18.0;0.31;4.12
19.0;0.32;4.55
20.0;0.33;5.0
