GRAND_ID: 6540
DAM_NAME: 135.854731
LONG: 135.854731
LAT: 34.895657
Depth(m);Area(km2);Volume(mcm)
0.0;0.0;0.0
1.0;0.01;0.12
2.0;0.02;0.24
3.0;0.03;0.38
4.0;0.04;0.53
5.0;0.06;0.69
6.0;0.08;0.87
7.0;0.1;1.07
8.0;0.11;1.29
9.0;0.13;1.52
10.0;0.15;1.77
11.0;0.17;2.05
12.0;0.19;2.34
