GRAND_ID: 6544
DAM_NAME: 137.725316
LONG: 137.725316
LAT: 34.877674
Depth(m);Area(km2);Volume(mcm)
0.0;0.0;0.0
1.0;0.05;0.15
2.0;0.09;0.35
3.0;0.12;0.58
4.0;0.16;0.84
5.0;0.19;1.14
6.0;0.22;1.47
7.0;0.26;1.83
8.0;0.3;2.24
9.0;0.34;2.68
10.0;0.38;3.16
11.0;0.4;3.66
12.0;0.43;4.19
