GRAND_ID: 7067
DAM_NAME: 119.431168
LONG: 119.431168
LAT: 29.954501
Depth(m);Area(km2);Volume(mcm)
0.0;0.0;0.0
1.0;0.56;0.78
2.0;2.15;3.15
3.0;4.26;7.63
4.0;6.22;14.06
5.0;7.62;21.89
6.0;8.49;30.6
7.0;9.28;40.09
8.0;9.68;49.99
9.0;10.02;60.22
10.0;10.23;70.67
11.0;10.37;81.25
12.0;10.47;91.94
