GRAND_ID: 7118
DAM_NAME: 35.649039
LONG: 35.649039
LAT: 38.243691
Depth(m);Area(km2);Volume(mcm)
0.0;0.0;0.0
1.0;0.52;0.64
2.0;0.95;1.72
3.0;1.48;3.33
4.0;2.46;5.91
5.0;3.71;9.74
6.0;5.25;15.12
7.0;6.23;21.47
8.0;7.23;28.83
9.0;8.18;37.14
10.0;9.28;46.54
11.0;10.03;56.7
12.0;10.69;67.52
13.0;11.11;78.75
14.0;11.49;90.37
15.0;11.73;102.23
16.0;11.93;114.28
17.0;12.09;126.49
18.0;12.23;138.85
19.0;12.32;151.3
