GRAND_ID: 7159
DAM_NAME: 107.926265
LONG: 107.926265
LAT: 12.530393
Depth(m);Area(km2);Volume(mcm)
0.0;0.0;0.0
1.0;0.13;0.37
2.0;0.4;1.0
3.0;0.63;1.86
4.0;1.16;3.26
5.0;1.48;4.97
6.0;2.0;7.2
7.0;2.26;9.69
8.0;2.58;12.5
9.0;2.9;15.62
10.0;3.4;19.26
11.0;3.65;23.14
12.0;4.07;27.45
13.0;4.33;32.0
14.0;4.9;37.14
15.0;5.32;42.68
16.0;5.9;48.81
17.0;6.21;55.26
18.0;6.99;62.48
19.0;7.47;70.18
20.0;8.25;78.66
21.0;8.61;87.5
