GRAND_ID: 7153
DAM_NAME: 108.257355
LONG: 108.257355
LAT: 13.58221
Depth(m);Area(km2);Volume(mcm)
0.0;0.0;0.0
1.0;0.01;0.11
2.0;0.02;0.23
3.0;0.03;0.36
4.0;0.05;0.51
5.0;0.1;0.71
6.0;0.67;1.49
7.0;6.11;7.7
8.0;10.06;17.87
9.0;16.97;34.94
10.0;22.82;57.86
11.0;30.39;88.36
12.0;35.2;123.67
13.0;37.76;161.53
14.0;38.79;200.42
