GRAND_ID: 7164
DAM_NAME: 107.935443
LONG: 107.935443
LAT: 13.039576
Depth(m);Area(km2);Volume(mcm)
0.0;0.0;0.0
1.0;0.04;0.16
2.0;0.13;0.41
3.0;0.23;0.76
4.0;0.68;1.56
5.0;1.4;3.07
6.0;2.56;5.76
7.0;3.17;9.05
8.0;3.96;13.13
9.0;4.73;17.98
10.0;6.07;24.17
11.0;7.61;31.9
12.0;9.84;41.86
13.0;10.91;52.89
14.0;12.03;65.05
15.0;12.68;77.85
16.0;13.48;91.45
17.0;13.96;105.53
